device found = /dev/cu.usbmodem14433
ch0 : [2573, 2626, 2631, 2639, 2627, 2613, 2651, 2637, 2416, 2591]
ch1 : [3192, 3194, 3187, 3191, 3191, 3189, 3190, 3198, 3191, 3190]
ch2 : [1494, 1498, 1493, 1496, 1498, 1496, 1491, 1462, 1496, 1501]
ch3 : [2945, 2943, 2946, 2943, 2944, 2939, 2943, 2941, 2944, 2943]
ch0 : [2630, 2644, 2643, 2612, 2600, 2649, 2610, 2585, 2629, 2629]
ch1 : [3194, 3190, 3190, 3189, 3190, 3188, 3190, 3192, 3191, 3187]
ch2 : [1496, 1496, 1495, 1492, 1492, 1477, 1482, 1493, 1499, 1491]
ch3 : [2952, 2946, 2942, 2943, 2944, 2941, 2944, 2943, 2946, 2939]
ch0 : [2639, 2633, 2631, 2651, 2628, 2400, 2594, 2634, 2640, 2644]
ch1 : [3187, 3191, 3193, 3190, 3188, 3195, 3190, 3189, 3191, 3193]
ch2 : [1491, 1497, 1492, 1487, 1479, 1493, 1502, 1496, 1503, 1497]
ch3 : [2939, 2948, 2944, 2945, 2943, 2947, 2949, 2944, 2947, 2944]
ch0 : [2602, 2623, 2651, 2641, 2564, 2631, 2626, 2640, 2633, 2644]
ch1 : [3191, 3192, 3189, 3196, 3190, 3193, 3193, 3193, 3191, 3192]
ch2 : [1496, 1502, 1493, 1495, 1511, 1512, 1508, 1506, 1503, 1503]
ch3 : [2943, 2945, 2943, 2952, 2947, 2948, 2945, 2943, 2939, 2942]
ch0 : [2647, 2622, 2393, 2576, 2632, 2634, 2638, 2603, 2612, 2644]
ch1 : [3188, 3190, 3192, 3193, 3188, 3196, 3190, 3194, 3193, 3195]
ch2 : [1505, 1491, 1506, 1507, 1508, 1504, 1503, 1502, 1509, 1500]
ch3 : [2944, 2943, 2942, 2948, 2946, 2946, 2945, 2943, 2945, 2946]
ch0 : [2648, 2549, 2630, 2635, 2641, 2630, 2628, 2661, 2651, 2372]
ch1 : [3191, 3190, 3187, 3189, 3190, 3193, 3191, 3190, 3191, 3196]
ch2 : [1499, 1518, 1516, 1503, 1520, 1516, 1519, 1519, 1501, 1515]
ch3 : [2939, 2943, 2949, 2946, 2946, 2946, 2945, 2939, 2938, 2943]
ch0 : [2584, 2626, 2634, 2640, 2609, 2604, 2651, 2644, 2532, 2622]
ch1 : [3190, 3193, 3191, 3184, 3194, 3193, 3187, 3190, 3193, 3183]
ch2 : [1526, 1529, 1532, 1519, 1523, 1521, 1512, 1498, 1533, 1537]
ch3 : [2943, 2947, 2947, 2942, 2943, 2945, 2940, 2945, 2943, 2948]
ch0 : [2633, 2635, 2627, 2615, 2642, 2649, 2352, 2567, 2627, 2638]
ch1 : [3192, 3188, 3193, 3191, 3193, 3190, 3193, 3194, 3193, 3193]
ch2 : [1538, 1537, 1531, 1522, 1516, 1512, 1529, 1545, 1546, 1542]
ch3 : [2950, 2939, 2943, 2943, 2943, 2942, 2945, 2949, 2947, 2952]
ch0 : [2645, 2640, 2605, 2652, 2645, 2541, 2631, 2642, 2634, 2639]
ch1 : [3186, 3189, 3190, 3195, 3189, 3194, 3191, 3190, 3191, 3192]
ch2 : [1540, 1542, 1540, 1536, 1547, 1547, 1548, 1549, 1543, 1561]
ch3 : [2948, 2945, 2943, 2942, 2943, 2948, 2946, 2947, 2949, 2952]
ch0 : [2611, 2643, 2613, 2348, 2562, 2624, 2628, 2653, 2611, 2615]
ch1 : [3193, 3190, 3190, 3194, 3192, 3190, 3184, 3192, 3186, 3201]
ch2 : [1557, 1557, 1539, 1547, 1560, 1567, 1561, 1562, 1562, 1566]
ch3 : [2947, 2947, 2949, 2948, 2946, 2950, 2950, 2956, 2951, 2946]
ch0 : [2656, 2648, 2524, 2627, 2631, 2643, 2640, 2596, 2619, 2648]
ch1 : [3192, 3189, 3191, 3191, 3193, 3188, 3196, 3195, 3190, 3186]
ch2 : [1558, 1552, 1564, 1565, 1560, 1566, 1565, 1564, 1565, 1542]
ch3 : [2952, 2948, 2948, 2954, 2956, 2950, 2957, 2950, 2951, 2952]
ch0 : [2338, 2568, 2628, 2634, 2643, 2605, 2615, 2656, 2647, 2517]
ch1 : [3193, 3193, 3191, 3186, 3178, 3190, 3191, 3193, 3196, 3192]
ch2 : [1546, 1550, 1544, 1540, 1538, 1535, 1531, 1520, 1519, 1532]
ch3 : [2953, 2952, 2952, 2950, 2949, 2948, 2948, 2954, 2943, 2947]
ch0 : [2635, 2642, 2607, 2607, 2651, 2647, 2492, 2617, 2628, 2639]
ch1 : [3196, 3196, 3194, 3190, 3193, 3185, 3191, 3193, 3190, 3183]
ch2 : [1536, 1537, 1540, 1535, 1530, 1530, 1549, 1554, 1559, 1562]
ch3 : [2949, 2944, 2946, 2954, 2942, 2939, 2945, 2947, 2947, 2943]
ch0 : [2639, 2598, 2573, 2647, 2386, 2540, 2620, 2622, 2638, 2615]
ch1 : [3181, 3190, 3197, 3191, 3192, 3187, 3190, 3193, 3193, 3187]
ch2 : [1560, 1564, 1565, 1555, 1563, 1590, 1579, 1577, 1578, 1578]
ch3 : [2948, 2943, 2945, 2941, 2939, 2948, 2939, 2941, 2941, 2935]
ch0 : [2641, 2647, 2643, 2511, 2612, 2643, 2639, 2629, 2609, 2587]
ch1 : [3204, 3196, 3184, 3178, 3193, 3192, 3193, 3191, 3193, 3194]
ch2 : [1577, 1576, 1566, 1574, 1585, 1583, 1580, 1586, 1582, 1580]
ch3 : [2940, 2948, 2943, 2953, 2945, 2946, 2944, 2938, 2941, 2943]
ch0 : [2649, 2483, 2527, 2633, 2637, 2644, 2592, 2621, 2646, 2650]
ch1 : [3191, 3193, 3195, 3191, 3193, 3193, 3190, 3187, 3190, 3191]
ch2 : [1569, 1569, 1588, 1590, 1587, 1579, 1579, 1587, 1564, 1575]
ch3 : [2946, 2940, 2945, 2945, 2940, 2938, 2942, 2943, 2948, 2943]
ch0 : [2479, 2612, 2633, 2634, 2635, 2600, 2566, 2644, 2504, 2500]
ch1 : [3193, 3190, 3192, 3195, 3188, 3190, 3191, 3205, 3192, 3199]
ch2 : [1585, 1587, 1590, 1590, 1590, 1582, 1595, 1578, 1577, 1594]
ch3 : [2948, 2945, 2948, 2949, 2946, 2943, 2945, 2948, 2943, 2952]
ch0 : [2604, 2637, 2638, 2594, 2621, 2646, 2645, 2451, 2595, 2627]
ch1 : [3189, 3190, 3195, 3192, 3193, 3193, 3193, 3191, 3189, 3188]
ch2 : [1593, 1592, 1587, 1587, 1588, 1582, 1571, 1585, 1589, 1592]
ch3 : [2950, 2954, 2950, 2949, 2944, 2948, 2946, 2947, 2950, 2948]
ch0 : [2634, 2640, 2602, 2557, 2646, 2590, 2498, 2610, 2631, 2639]
ch1 : [3188, 3179, 3193, 3190, 3189, 3195, 3202, 3195, 3192, 3192]
ch2 : [1584, 1581, 1579, 1581, 1564, 1561, 1582, 1583, 1578, 1580]
ch3 : [2943, 2946, 2947, 2944, 2948, 2941, 2943, 2946, 2948, 2943]
ch0 : [2609, 2618, 2645, 2647, 2453, 2597, 2631, 2624, 2640, 2601]
ch1 : [3193, 3192, 3187, 3192, 3187, 3193, 3190, 3188, 3191, 3193]
ch2 : [1572, 1573, 1572, 1560, 1566, 1578, 1582, 1576, 1580, 1575]
ch3 : [2943, 2952, 2950, 2941, 2947, 2939, 2935, 2930, 2942, 2941]
ch0 : [2646, 2430, 2592, 2629, 2630, 2633, 2602, 2567, 2634, 2647]
ch1 : [3191, 3197, 3200, 3198, 3193, 3191, 3194, 3194, 3193, 3189]
ch2 : [1571, 1576, 1585, 1585, 1583, 1584, 1579, 1586, 1573, 1571]
ch3 : [2943, 2948, 2946, 2944, 2944, 2943, 2944, 2945, 2941, 2941]
ch0 : [2487, 2613, 2636, 2641, 2624, 2611, 2644, 2649, 2429, 2600]
ch1 : [3192, 3194, 3191, 3186, 3191, 3190, 3190, 3190, 3189, 3190]
ch2 : [1590, 1594, 1593, 1585, 1590, 1593, 1589, 1584, 1584, 1600]
ch3 : [2948, 2949, 2950, 2942, 2943, 2945, 2944, 2944, 2945, 2947]
ch0 : [2632, 2618, 2633, 2615, 2575, 2650, 2644, 2473, 2609, 2632]
ch1 : [3185, 3191, 3187, 3193, 3187, 3196, 3194, 3193, 3192, 3193]
ch2 : [1602, 1601, 1594, 1595, 1596, 1586, 1579, 1595, 1606, 1595]
ch3 : [2947, 2948, 2948, 2947, 2947, 2942, 2943, 2940, 2948, 2948]
ch0 : [2641, 2607, 2599, 2638, 2644, 2430, 2585, 2625, 2617, 2636]
ch1 : [3193, 3191, 3186, 3193, 3185, 3193, 3191, 3190, 3195, 3194]
ch2 : [1595, 1597, 1590, 1594, 1582, 1584, 1599, 1596, 1596, 1591]
ch3 : [2948, 2941, 2947, 2946, 2943, 2946, 2948, 2948, 2952, 2946]
ch0 : [2612, 2588, 2647, 2634, 2456, 2603, 2630, 2647, 2622, 2607]
ch1 : [3190, 3180, 3186, 3196, 3195, 3190, 3199, 3193, 3190, 3187]
ch2 : [1595, 1599, 1584, 1581, 1596, 1600, 1599, 1598, 1601, 1590]
ch3 : [2948, 2946, 2944, 2947, 2945, 2948, 2949, 2948, 2947, 2940]
ch0 : [2632, 2651, 2439, 2584, 2625, 2620, 2631, 2597, 2590, 2650]
ch1 : [3191, 3188, 3191, 3195, 3180, 3195, 3190, 3193, 3196, 3192]
ch2 : [1596, 1585, 1584, 1604, 1596, 1599, 1597, 1596, 1595, 1592]
ch3 : [2949, 2942, 2944, 2946, 2949, 2945, 2948, 2942, 2950, 2946]
ch0 : [2617, 2449, 2600, 2623, 2637, 2632, 2602, 2634, 2645, 2493]
ch1 : [3188, 3193, 3190, 3194, 3186, 3201, 3190, 3192, 3194, 3192]
ch2 : [1578, 1596, 1612, 1597, 1594, 1593, 1594, 1592, 1576, 1581]
ch3 : [2944, 2947, 2951, 2941, 2949, 2942, 2948, 2944, 2946, 2945]
ch0 : [2577, 2625, 2636, 2640, 2601, 2615, 2644, 2637, 2426, 2592]
ch1 : [3191, 3191, 3189, 3191, 3194, 3190, 3192, 3192, 3181, 3196]
ch2 : [1598, 1592, 1591, 1588, 1589, 1591, 1575, 1568, 1583, 1588]
ch3 : [2948, 2949, 2947, 2947, 2947, 2945, 2945, 2954, 2947, 2948]
ch0 : [2629, 2640, 2627, 2608, 2615, 2650, 2562, 2562, 2618, 2628]
ch1 : [3191, 3196, 3191, 3190, 3196, 3193, 3189, 3187, 3191, 3193]
ch2 : [1585, 1583, 1582, 1582, 1580, 1568, 1571, 1580, 1589, 1581]
ch3 : [2953, 2948, 2943, 2944, 2955, 2943, 2940, 2949, 2936, 2947]
ch0 : [2637, 2614, 2603, 2641, 2647, 2426, 2598, 2636, 2636, 2633]
ch1 : [3194, 3191, 3187, 3191, 3192, 3193, 3182, 3191, 3190, 3190]
ch2 : [1579, 1577, 1574, 1568, 1559, 1579, 1581, 1578, 1565, 1577]
ch3 : [2948, 2951, 2943, 2942, 2941, 2947, 2943, 2949, 2948, 2943]
ch0 : [2649, 2649, 2400, 2600, 2638, 2639, 2638, 2636, 2616, 2660]
ch1 : [3192, 3189, 3192, 3195, 3188, 3191, 3191, 3196, 3193, 3193]
ch2 : [1559, 1556, 1569, 1570, 1570, 1572, 1572, 1564, 1565, 1553]
ch3 : [2943, 2931, 2946, 2952, 2952, 2947, 2945, 2950, 2946, 2948]
ch0 : [2595, 2564, 2637, 2632, 2642, 2628, 2617, 2649, 2602, 2388]
ch1 : [3190, 3193, 3190, 3189, 3190, 3189, 3191, 3192, 3190, 3192]
ch2 : [1550, 1565, 1570, 1565, 1579, 1563, 1565, 1557, 1549, 1557]
ch3 : [2954, 2948, 2948, 2942, 2946, 2943, 2947, 2946, 2944, 2944]
ch0 : [2587, 2635, 2638, 2632, 2608, 2610, 2650, 2620, 2552, 2625]
ch1 : [3180, 3192, 3186, 3187, 3188, 3193, 3183, 3189, 3196, 3191]
ch2 : [1566, 1568, 1561, 1560, 1565, 1556, 1548, 1547, 1560, 1564]
ch3 : [2950, 2948, 2949, 2946, 2943, 2948, 2946, 2949, 2943, 2947]
ch0 : [2637, 2642, 2628, 2616, 2647, 2649, 2383, 2576, 2636, 2635]
ch1 : [3193, 3191, 3201, 3191, 3192, 3191, 3191, 3190, 3191, 3189]
ch2 : [1559, 1560, 1558, 1560, 1555, 1540, 1556, 1563, 1553, 1557]
ch3 : [2946, 2945, 2931, 2948, 2955, 2935, 2948, 2952, 2948, 2949]
ch0 : [2643, 2622, 2595, 2651, 2624, 2540, 2634, 2629, 2643, 2624]
ch1 : [3188, 3191, 3189, 3190, 3191, 3191, 3191, 3183, 3194, 3191]
ch2 : [1554, 1555, 1559, 1542, 1540, 1551, 1557, 1556, 1556, 1551]
ch3 : [2945, 2945, 2948, 2946, 2942, 2947, 2946, 2952, 2946, 2945]
ch0 : [2600, 2649, 2643, 2357, 2570, 2632, 2639, 2642, 2613, 2605]
ch1 : [3194, 3192, 3184, 3195, 3183, 3193, 3192, 3189, 3190, 3195]
ch2 : [1550, 1553, 1538, 1543, 1561, 1557, 1556, 1546, 1550, 1550]
ch3 : [2947, 2947, 2945, 2944, 2952, 2947, 2946, 2942, 2953, 2947]
ch0 : [2649, 2639, 2523, 2631, 2627, 2637, 2620, 2598, 2646, 2649]
ch1 : [3189, 3193, 3194, 3183, 3191, 3190, 3191, 3196, 3193, 3195]
ch2 : [1539, 1536, 1554, 1558, 1552, 1556, 1552, 1552, 1552, 1537]
ch3 : [2939, 2943, 2946, 2952, 2947, 2945, 2945, 2948, 2947, 2942]
ch0 : [2338, 2566, 2625, 2637, 2640, 2614, 2602, 2656, 2662, 2524]
ch1 : [3198, 3190, 3191, 3191, 3192, 3193, 3196, 3190, 3190, 3195]
ch2 : [1544, 1557, 1557, 1552, 1545, 1549, 1549, 1541, 1534, 1544]
ch3 : [2942, 2951, 2961, 2946, 2942, 2934, 2945, 2942, 2949, 2957]
ch0 : [2612, 2630, 2640, 2638, 2604, 2634, 2642, 2325, 2553, 2631]
ch1 : [3191, 3190, 3200, 3190, 3190, 3189, 3193, 3193, 3191, 3190]
ch2 : [1549, 1555, 1552, 1550, 1563, 1550, 1533, 1542, 1549, 1559]
ch3 : [2958, 2948, 2946, 2943, 2943, 2946, 2942, 2943, 2950, 2947]
ch0 : [2640, 2649, 2614, 2617, 2649, 2619, 2519, 2641, 2636, 2636]
ch1 : [3185, 3192, 3180, 3194, 3192, 3192, 3189, 3190, 3193, 3192]
ch2 : [1554, 1548, 1551, 1546, 1535, 1536, 1550, 1554, 1555, 1552]
ch3 : [2952, 2943, 2943, 2946, 2943, 2947, 2947, 2954, 2948, 2947]
ch0 : [2623, 2589, 2592, 2642, 2343, 2549, 2628, 2636, 2643, 2616]
ch1 : [3189, 3193, 3189, 3190, 3194, 3205, 3194, 3191, 3192, 3193]
ch2 : [1552, 1551, 1551, 1535, 1540, 1556, 1556, 1553, 1535, 1548]
ch3 : [2941, 2944, 2947, 2953, 2943, 2949, 2948, 2947, 2943, 2949]
ch0 : [2631, 2661, 2647, 2497, 2621, 2637, 2640, 2639, 2590, 2578]
ch1 : [3189, 3193, 3193, 3195, 3193, 3194, 3188, 3193, 3193, 3195]
ch2 : [1548, 1546, 1536, 1548, 1553, 1566, 1556, 1547, 1549, 1550]
ch3 : [2947, 2945, 2943, 2949, 2947, 2952, 2949, 2948, 2947, 2948]
ch0 : [2641, 2365, 2536, 2626, 2637, 2647, 2616, 2628, 2652, 2648]
ch1 : [3192, 3193, 3191, 3189, 3188, 3190, 3191, 3200, 3193, 3189]
ch2 : [1531, 1536, 1554, 1548, 1552, 1543, 1554, 1549, 1539, 1530]
ch3 : [2946, 2943, 2950, 2946, 2947, 2942, 2944, 2944, 2941, 2949]
ch0 : [2498, 2635, 2631, 2652, 2643, 2594, 2580, 2653, 2431, 2534]
ch1 : [3188, 3192, 3193, 3196, 3191, 3190, 3195, 3196, 3190, 3203]
ch2 : [1547, 1550, 1547, 1551, 1552, 1546, 1534, 1536, 1530, 1554]
ch3 : [2943, 2950, 2948, 2949, 2947, 2956, 2949, 2946, 2944, 2948]
ch0 : [2636, 2639, 2643, 2596, 2634, 2649, 2632, 2491, 2629, 2634]
ch1 : [3193, 3185, 3193, 3194, 3193, 3198, 3189, 3192, 3190, 3186]
ch2 : [1557, 1549, 1546, 1547, 1547, 1539, 1534, 1548, 1548, 1550]
ch3 : [2943, 2952, 2942, 2943, 2945, 2947, 2943, 2948, 2948, 2948]
ch0 : [2646, 2642, 2614, 2580, 2652, 2512, 2516, 2626, 2639, 2645]
ch1 : [3202, 3191, 3191, 3187, 3193, 3190, 3192, 3190, 3191, 3194]
ch2 : [1551, 1546, 1552, 1546, 1524, 1528, 1544, 1554, 1552, 1546]
ch3 : [2945, 2946, 2946, 2951, 2939, 2946, 2950, 2951, 2950, 2948]
ch0 : [2621, 2628, 2643, 2653, 2459, 2620, 2641, 2642, 2643, 2624]
ch1 : [3190, 3189, 3191, 3192, 3193, 3199, 3192, 3193, 3190, 3190]
ch2 : [1544, 1529, 1538, 1531, 1542, 1554, 1549, 1547, 1548, 1544]
ch3 : [2943, 2948, 2948, 2943, 2952, 2948, 2950, 2949, 2946, 2949]
ch0 : [2575, 2654, 2603, 2520, 2630, 2638, 2647, 2632, 2633, 2653]
ch1 : [3192, 3191, 3193, 3191, 3190, 3187, 3193, 3192, 3191, 3190]
ch2 : [1550, 1535, 1528, 1552, 1550, 1548, 1543, 1541, 1539, 1543]
ch3 : [2941, 2946, 2945, 2950, 2951, 2949, 2946, 2946, 2944, 2947]
ch0 : [2651, 2454, 2611, 2637, 2642, 2644, 2615, 2584, 2653, 2640]
ch1 : [3191, 3197, 3194, 3193, 3193, 3185, 3193, 3179, 3192, 3193]
ch2 : [1532, 1535, 1548, 1546, 1546, 1548, 1541, 1543, 1528, 1525]
ch3 : [2948, 2950, 2952, 2936, 2948, 2946, 2947, 2949, 2943, 2948]
ch0 : [2498, 2614, 2637, 2648, 2630, 2639, 2651, 2655, 2437, 2593]
ch1 : [3192, 3191, 3179, 3192, 3194, 3183, 3187, 3191, 3195, 3196]
ch2 : [1535, 1554, 1543, 1541, 1540, 1538, 1532, 1527, 1530, 1538]
ch3 : [2949, 2956, 2947, 2949, 2946, 2946, 2945, 2946, 2951, 2961]
ch0 : [2649, 2635, 2641, 2616, 2574, 2651, 2590, 2494, 2613, 2639]
ch1 : [3190, 3193, 3191, 3186, 3195, 3191, 3188, 3190, 3194, 3186]
ch2 : [1540, 1535, 1537, 1532, 1534, 1518, 1513, 1532, 1530, 1538]
ch3 : [2948, 2946, 2943, 2949, 2944, 2948, 2938, 2950, 2951, 2956]
ch0 : [2639, 2623, 2621, 2648, 2653, 2435, 2594, 2639, 2622, 2637]
ch1 : [3189, 3186, 3189, 3192, 3195, 3191, 3191, 3193, 3196, 3191]
ch2 : [1526, 1523, 1523, 1530, 1511, 1519, 1526, 1527, 1524, 1518]
ch3 : [2941, 2943, 2942, 2948, 2947, 2941, 2948, 2943, 2948, 2946]
ch0 : [2624, 2583, 2651, 2644, 2481, 2616, 2639, 2644, 2646, 2607]
ch1 : [3190, 3192, 3189, 3192, 3193, 3190, 3194, 3192, 3190, 3191]
ch2 : [1521, 1526, 1512, 1512, 1526, 1529, 1529, 1526, 1529, 1526]
ch3 : [2950, 2938, 2947, 2943, 2949, 2943, 2951, 2947, 2940, 2940]
ch0 : [2626, 2475, 2619, 2630, 2643, 2647, 2610, 2649, 2652, 2424]
ch1 : [3190, 3188, 3191, 3187, 3191, 3193, 3196, 3179, 3190, 3195]
ch2 : [1517, 1535, 1541, 1534, 1537, 1529, 1523, 1526, 1513, 1514]
ch3 : [2946, 2948, 2950, 2935, 2946, 2943, 2956, 2943, 2946, 2950]
ch0 : [2600, 2636, 2633, 2637, 2618, 2599, 2650, 2640, 2474, 2620]
ch1 : [3191, 3186, 3191, 3186, 3193, 3189, 3193, 3190, 3187, 3180]
ch2 : [1531, 1530, 1533, 1524, 1526, 1530, 1522, 1516, 1528, 1537]
ch3 : [2949, 2946, 2946, 2957, 2944, 2948, 2939, 2932, 2952, 2950]
ch0 : [2633, 2649, 2637, 2611, 2643, 2647, 2441, 2586, 2631, 2628]
ch1 : [3192, 3190, 3191, 3191, 3193, 3195, 3193, 3194, 3199, 3194]
ch2 : [1525, 1528, 1509, 1528, 1523, 1514, 1517, 1535, 1540, 1534]
ch3 : [2947, 2951, 2943, 2954, 2949, 2947, 2948, 2945, 2945, 2946]
ch0 : [2642, 2611, 2599, 2653, 2623, 2457, 2610, 2639, 2644, 2631]
ch1 : [3189, 3190, 3193, 3177, 3194, 3193, 3192, 3190, 3193, 3188]
ch2 : [1534, 1535, 1537, 1528, 1518, 1531, 1531, 1533, 1540, 1548]
ch3 : [2942, 2942, 2943, 2939, 2942, 2943, 2950, 2948, 2944, 2940]
ch0 : [2619, 2636, 2655, 2469, 2569, 2635, 2623, 2634, 2600, 2600]
ch1 : [3190, 3192, 3191, 3200, 3190, 3186, 3193, 3192, 3188, 3190]
ch2 : [1549, 1555, 1532, 1530, 1545, 1547, 1531, 1533, 1547, 1544]
ch3 : [2937, 2942, 2943, 2943, 2943, 2942, 2943, 2944, 2940, 2945]
ch0 : [2654, 2620, 2431, 2594, 2629, 2645, 2636, 2588, 2613, 2648]
ch1 : [3191, 3190, 3194, 3193, 3193, 3191, 3191, 3197, 3189, 3191]
ch2 : [1541, 1543, 1551, 1556, 1555, 1548, 1545, 1555, 1546, 1533]
ch3 : [2944, 2941, 2943, 2946, 2946, 2943, 2942, 2943, 2943, 2943]
ch0 : [2535, 2568, 2621, 2620, 2636, 2604, 2601, 2646, 2635, 2399]
ch1 : [3187, 3191, 3191, 3193, 3182, 3192, 3192, 3200, 3190, 3198]
ch2 : [1531, 1557, 1559, 1555, 1556, 1538, 1541, 1542, 1535, 1548]
ch3 : [2943, 2947, 2943, 2944, 2943, 2942, 2953, 2944, 2942, 2945]
ch0 : [2597, 2625, 2638, 2627, 2602, 2596, 2639, 2569, 2558, 2632]
ch1 : [3193, 3193, 3189, 3198, 3187, 3192, 3190, 3193, 3193, 3193]
ch2 : [1559, 1562, 1550, 1547, 1550, 1552, 1552, 1552, 1565, 1570]
ch3 : [2945, 2944, 2948, 2941, 2945, 2941, 2943, 2941, 2946, 2944]
ch0 : [2624, 2639, 2613, 2616, 2647, 2633, 2405, 2595, 2627, 2637]
ch1 : [3188, 3192, 3184, 3187, 3204, 3193, 3200, 3193, 3190, 3189]
ch2 : [1568, 1567, 1565, 1562, 1569, 1553, 1581, 1574, 1572, 1566]
ch3 : [2944, 2942, 2942, 2944, 2944, 2943, 2943, 2945, 2939, 2946]
ch0 : [2641, 2612, 2585, 2644, 2615, 2543, 2627, 2632, 2640, 2623]
ch1 : [3192, 3192, 3194, 3193, 3188, 3191, 3191, 3190, 3191, 3192]
ch2 : [1574, 1572, 1572, 1560, 1554, 1577, 1578, 1577, 1577, 1566]
ch3 : [2941, 2943, 2941, 2943, 2942, 2946, 2943, 2949, 2942, 2942]
ch0 : [2609, 2641, 2648, 2369, 2586, 2620, 2634, 2634, 2609, 2605]
ch1 : [3188, 3192, 3196, 3195, 3192, 3191, 3194, 3186, 3195, 3193]
ch2 : [1557, 1559, 1550, 1564, 1575, 1573, 1570, 1564, 1562, 1558]
ch3 : [2943, 2941, 2943, 2946, 2947, 2949, 2948, 2945, 2925, 2942]
ch0 : [2646, 2647, 2539, 2627, 2629, 2634, 2634, 2626, 2645, 2642]
ch1 : [3187, 3193, 3191, 3194, 3177, 3192, 3193, 3193, 3191, 3183]
ch2 : [1535, 1554, 1568, 1570, 1565, 1572, 1559, 1559, 1561, 1545]
ch3 : [2940, 2937, 2946, 2944, 2939, 2944, 2942, 2942, 2943, 2942]
ch0 : [2362, 2577, 2609, 2633, 2640, 2625, 2596, 2646, 2640, 2537]
ch1 : [3193, 3188, 3194, 3192, 3191, 3200, 3192, 3201, 3190, 3187]
ch2 : [1562, 1568, 1563, 1563, 1561, 1571, 1558, 1542, 1539, 1550]
ch3 : [2945, 2948, 2949, 2948, 2942, 2945, 2945, 2940, 2948, 2944]
ch0 : [2624, 2628, 2649, 2636, 2611, 2643, 2615, 2361, 2569, 2632]
ch1 : [3191, 3193, 3190, 3189, 3191, 3188, 3193, 3193, 3194, 3189]
ch2 : [1556, 1551, 1545, 1548, 1534, 1535, 1526, 1535, 1545, 1540]
ch3 : [2947, 2947, 2945, 2943, 2943, 2939, 2943, 2942, 2947, 2948]
ch0 : [2628, 2636, 2604, 2601, 2646, 2639, 2522, 2627, 2653, 2638]
ch1 : [3191, 3187, 3192, 3187, 3189, 3186, 3191, 3186, 3191, 3186]
ch2 : [1535, 1535, 1534, 1536, 1525, 1526, 1541, 1540, 1541, 1539]
ch3 : [2936, 2940, 2943, 2942, 2934, 2947, 2946, 2948, 2945, 2941]
ch0 : [2638, 2599, 2650, 2646, 2324, 2566, 2623, 2632, 2643, 2615]
ch1 : [3190, 3193, 3190, 3192, 3185, 3196, 3193, 3195, 3191, 3192]
ch2 : [1535, 1535, 1535, 1513, 1518, 1525, 1527, 1521, 1526, 1526]
ch3 : [2939, 2938, 2942, 2941, 2941, 2945, 2943, 2945, 2938, 2941]
ch0 : [2604, 2644, 2645, 2524, 2619, 2628, 2640, 2650, 2599, 2638]
ch1 : [3191, 3190, 3190, 3192, 3192, 3191, 3195, 3196, 3193, 3194]
ch2 : [1517, 1501, 1503, 1511, 1513, 1507, 1508, 1508, 1509, 1510]
ch3 : [2939, 2939, 2939, 2945, 2939, 2939, 2938, 2940, 2942, 2942]
ch0 : [2647, 2329, 2559, 2634, 2640, 2633, 2604, 2623, 2647, 2643]
ch1 : [3189, 3189, 3186, 3190, 3192, 3191, 3195, 3181, 3190, 3194]
ch2 : [1492, 1498, 1509, 1510, 1503, 1505, 1505, 1503, 1487, 1487]
ch3 : [2942, 2939, 2942, 2944, 2946, 2941, 2941, 2939, 2938, 2942]
ch0 : [2513, 2623, 2633, 2639, 2636, 2601, 2584, 2651, 2319, 2546]
ch1 : [3191, 3191, 3192, 3187, 3189, 3190, 3191, 3186, 3197, 3193]
ch2 : [1497, 1502, 1497, 1496, 1487, 1492, 1486, 1473, 1471, 1484]
ch3 : [2943, 2945, 2942, 2952, 2940, 2940, 2936, 2940, 2940, 2943]
ch0 : [2626, 2635, 2643, 2613, 2616, 2662, 2638, 2499, 2636, 2636]
ch1 : [3188, 3188, 3192, 3187, 3192, 3190, 3186, 3191, 3192, 3193]
ch2 : [1492, 1479, 1479, 1476, 1474, 1465, 1455, 1467, 1476, 1471]
ch3 : [2947, 2942, 2941, 2941, 2940, 2942, 2938, 2943, 2943, 2940]
ch0 : [2638, 2640, 2598, 2589, 2646, 2360, 2542, 2626, 2636, 2642]
ch1 : [3190, 3189, 3194, 3189, 3188, 3193, 3190, 3187, 3191, 3193]
ch2 : [1478, 1469, 1473, 1467, 1456, 1440, 1471, 1468, 1466, 1449]
ch3 : [2940, 2943, 2943, 2943, 2943, 2941, 2942, 2952, 2938, 2940]
ch0 : [2614, 2618, 2648, 2649, 2491, 2623, 2630, 2639, 2642, 2599]
ch1 : [3191, 3193, 3193, 3189, 3190, 3183, 3192, 3192, 3190, 3193]
ch2 : [1461, 1461, 1453, 1449, 1456, 1463, 1467, 1465, 1455, 1457]
ch3 : [2936, 2940, 2941, 2943, 2942, 2943, 2943, 2943, 2942, 2942]
ch0 : [2573, 2646, 2440, 2543, 2624, 2634, 2638, 2617, 2626, 2649]
ch1 : [3192, 3194, 3194, 3194, 3193, 3192, 3189, 3200, 3183, 3191]
ch2 : [1461, 1443, 1438, 1460, 1461, 1457, 1454, 1438, 1450, 1440]
ch3 : [2942, 2939, 2939, 2934, 2946, 2943, 2939, 2940, 2941, 2939]
ch0 : [2647, 2479, 2614, 2641, 2636, 2638, 2604, 2583, 2633, 2526]
ch1 : [3191, 3194, 3190, 3193, 3189, 3192, 3196, 3193, 3190, 3190]
ch2 : [1433, 1448, 1460, 1454, 1457, 1450, 1450, 1456, 1443, 1439]
ch3 : [2941, 2939, 2943, 2944, 2943, 2943, 2943, 2943, 2942, 2950]
ch0 : [2519, 2632, 2629, 2645, 2618, 2622, 2650, 2636, 2461, 2609]
ch1 : [3192, 3187, 3191, 3186, 3194, 3187, 3191, 3187, 3189, 3191]
ch2 : [1456, 1455, 1458, 1458, 1462, 1455, 1459, 1446, 1464, 1472]
ch3 : [2944, 2941, 2943, 2941, 2938, 2940, 2941, 2938, 2941, 2943]
ch0 : [2634, 2642, 2642, 2600, 2567, 2654, 2577, 2511, 2620, 2638]
ch1 : [3194, 3192, 3193, 3190, 3184, 3190, 3187, 3194, 3192, 3191]
ch2 : [1469, 1470, 1466, 1471, 1468, 1461, 1453, 1474, 1474, 1480]
ch3 : [2943, 2944, 2940, 2935, 2944, 2941, 2942, 2941, 2941, 2945]
ch0 : [2644, 2631, 2622, 2648, 2648, 2450, 2617, 2631, 2635, 2644]
ch1 : [3193, 3192, 3192, 3192, 3191, 3195, 3196, 3193, 3193, 3191]
ch2 : [1475, 1476, 1469, 1469, 1465, 1479, 1482, 1482, 1482, 1483]
ch3 : [2943, 2939, 2939, 2940, 2943, 2952, 2943, 2944, 2942, 2943]
ch0 : [2651, 2650, 2432, 2586, 2635, 2627, 2637, 2586, 2573, 2642]
ch1 : [3194, 3184, 3194, 3196, 3189, 3190, 3190, 3182, 3187, 3202]
ch2 : [1483, 1472, 1484, 1495, 1494, 1495, 1492, 1494, 1493, 1487]
ch3 : [2943, 2944, 2943, 2940, 2944, 2942, 2945, 2944, 2943, 2942]
ch0 : [2612, 2498, 2609, 2629, 2644, 2619, 2615, 2647, 2651, 2432]
ch1 : [3195, 3191, 3196, 3192, 3189, 3193, 3192, 3186, 3191, 3192]
ch2 : [1481, 1498, 1502, 1502, 1498, 1499, 1500, 1499, 1505, 1492]
ch3 : [2953, 2943, 2946, 2944, 2945, 2939, 2943, 2941, 2943, 2946]
ch0 : [2604, 2633, 2629, 2643, 2613, 2588, 2648, 2641, 2491, 2615]
ch1 : [3196, 3192, 3191, 3191, 3192, 3193, 3190, 3188, 3193, 3193]
ch2 : [1508, 1509, 1507, 1506, 1507, 1509, 1500, 1492, 1510, 1514]
ch3 : [2947, 2944, 2947, 2939, 2943, 2943, 2933, 2941, 2946, 2948]
ch0 : [2632, 2638, 2622, 2619, 2643, 2644, 2409, 2594, 2626, 2628]
ch1 : [3197, 3191, 3192, 3192, 3186, 3196, 3187, 3203, 3192, 3184]
ch2 : [1509, 1512, 1510, 1511, 1510, 1499, 1506, 1519, 1520, 1518]
ch3 : [2945, 2942, 2943, 2942, 2946, 2952, 2947, 2944, 2948, 2943]
ch0 : [2632, 2601, 2587, 2655, 2636, 2468, 2602, 2634, 2641, 2620]
ch1 : [3192, 3191, 3192, 3193, 3202, 3200, 3193, 3193, 3191, 3193]
ch2 : [1502, 1514, 1515, 1503, 1500, 1515, 1520, 1519, 1517, 1513]
ch3 : [2941, 2945, 2943, 2941, 2943, 2948, 2948, 2943, 2943, 2942]
ch0 : [2602, 2641, 2646, 2407, 2584, 2635, 2626, 2638, 2599, 2587]
ch1 : [3197, 3192, 3178, 3191, 3190, 3190, 3189, 3186, 3190, 3192]
ch2 : [1516, 1516, 1500, 1511, 1521, 1521, 1513, 1524, 1516, 1520]
ch3 : [2946, 2945, 2945, 2946, 2946, 2943, 2943, 2945, 2944, 2946]
ch0 : [2646, 2630, 2440, 2586, 2636, 2639, 2640, 2607, 2634, 2645]
ch1 : [3191, 3191, 3196, 3190, 3190, 3197, 3195, 3189, 3192, 3192]
ch2 : [1509, 1501, 1519, 1532, 1521, 1517, 1511, 1514, 1511, 1503]
ch3 : [2929, 2947, 2946, 2948, 2949, 2942, 2942, 2950, 2944, 2943]
ch0 : [2462, 2578, 2631, 2616, 2634, 2603, 2594, 2659, 2644, 2431]
ch1 : [3192, 3195, 3195, 3190, 3190, 3194, 3193, 3190, 3192, 3193]
ch2 : [1498, 1504, 1521, 1518, 1515, 1518, 1517, 1511, 1501, 1518]
ch3 : [2952, 2949, 2946, 2947, 2944, 2946, 2946, 2954, 2948, 2944]
ch0 : [2592, 2628, 2641, 2635, 2579, 2619, 2642, 2525, 2572, 2632]
ch1 : [3193, 3187, 3191, 3195, 3190, 3193, 3194, 3192, 3192, 3183]
ch2 : [1519, 1522, 1525, 1519, 1513, 1519, 1505, 1521, 1518, 1527]
ch3 : [2949, 2949, 2946, 2945, 2943, 2943, 2943, 2946, 2946, 2942]
ch0 : [2619, 2635, 2608, 2603, 2647, 2640, 2417, 2583, 2628, 2641]
ch1 : [3192, 3192, 3191, 3192, 3193, 3192, 3191, 3193, 3183, 3193]
ch2 : [1522, 1519, 1524, 1521, 1511, 1506, 1522, 1526, 1523, 1519]
ch3 : [2947, 2939, 2943, 2943, 2944, 2942, 2946, 2948, 2948, 2947]
ch0 : [2620, 2639, 2647, 2400, 2593, 2634, 2636, 2638, 2609, 2592]
ch1 : [3192, 3191, 3191, 3192, 3195, 3191, 3190, 3192, 3190, 3192]
ch2 : [1519, 1509, 1501, 1512, 1522, 1520, 1519, 1512, 1522, 1518]
ch3 : [2948, 2949, 2943, 2945, 2952, 2949, 2947, 2942, 2943, 2947]
ch0 : [2648, 2589, 2555, 2612, 2631, 2626, 2628, 2624, 2645, 2648]
ch1 : [3192, 3188, 3192, 3192, 3191, 3190, 3191, 3192, 3189, 3190]
ch2 : [1508, 1504, 1520, 1520, 1521, 1530, 1518, 1520, 1513, 1505]
ch3 : [2946, 2949, 2949, 2948, 2947, 2943, 2943, 2946, 2948, 2944]
ch0 : [2389, 2579, 2632, 2631, 2636, 2577, 2594, 2644, 2615, 2547]
ch1 : [3192, 3191, 3189, 3194, 3185, 3191, 3189, 3191, 3190, 3189]
ch2 : [1513, 1523, 1521, 1519, 1517, 1516, 1524, 1514, 1503, 1521]
ch3 : [2946, 2947, 2945, 2945, 2943, 2945, 2946, 2943, 2949, 2947]
ch0 : [2628, 2623, 2635, 2629, 2608, 2648, 2621, 2387, 2577, 2642]
ch1 : [3190, 3183, 3190, 3187, 3186, 3193, 3193, 3193, 3202, 3190]
ch2 : [1517, 1517, 1518, 1516, 1519, 1508, 1503, 1512, 1527, 1532]
ch3 : [2946, 2948, 2944, 2952, 2946, 2946, 2942, 2945, 2933, 2947]
ch0 : [2621, 2638, 2613, 2596, 2645, 2632, 2546, 2630, 2620, 2633]
ch1 : [3193, 3192, 3194, 3190, 3192, 3187, 3187, 3191, 3193, 3196]
ch2 : [1519, 1511, 1515, 1511, 1504, 1502, 1516, 1525, 1517, 1516]
ch3 : [2947, 2942, 2943, 2950, 2947, 2952, 2947, 2946, 2945, 2946]
ch0 : [2616, 2599, 2640, 2649, 2356, 2562, 2629, 2631, 2636, 2609]
ch1 : [3192, 3189, 3189, 3204, 3193, 3193, 3190, 3193, 3193, 3187]
ch2 : [1512, 1512, 1525, 1499, 1507, 1523, 1519, 1516, 1516, 1512]
ch3 : [2953, 2939, 2948, 2947, 2944, 2952, 2948, 2948, 2942, 2942]
ch0 : [2610, 2652, 2637, 2530, 2620, 2625, 2636, 2617, 2616, 2641]
ch1 : [3194, 3190, 3182, 3192, 3191, 3191, 3194, 3193, 3194, 3191]
ch2 : [1513, 1497, 1503, 1513, 1517, 1516, 1515, 1514, 1514, 1512]
ch3 : [2947, 2942, 2947, 2949, 2943, 2949, 2943, 2945, 2944, 2946]
ch0 : [2644, 2339, 2571, 2618, 2631, 2635, 2614, 2594, 2645, 2643]
ch1 : [3193, 3195, 3196, 3188, 3183, 3192, 3193, 3190, 3189, 3186]
ch2 : [1493, 1506, 1517, 1519, 1516, 1513, 1511, 1513, 1504, 1498]
ch3 : [2944, 2946, 2948, 2940, 2950, 2943, 2944, 2940, 2942, 2945]
ch0 : [2519, 2612, 2635, 2637, 2629, 2598, 2637, 2642, 2319, 2560]
ch1 : [3186, 3191, 3192, 3191, 3191, 3193, 3187, 3190, 3191, 3192]
ch2 : [1512, 1514, 1513, 1511, 1512, 1507, 1512, 1490, 1505, 1512]
ch3 : [2948, 2948, 2946, 2946, 2947, 2942, 2946, 2940, 2943, 2943]
ch0 : [2603, 2635, 2631, 2605, 2587, 2647, 2646, 2517, 2604, 2631]
ch1 : [3189, 3191, 3196, 3191, 3191, 3193, 3193, 3192, 3192, 3180]
ch2 : [1516, 1512, 1511, 1512, 1513, 1501, 1497, 1512, 1511, 1518]
ch3 : [2947, 2945, 2942, 2939, 2943, 2943, 2943, 2946, 2946, 2946]
ch0 : [2605, 2604, 2649, 2644, 2498, 2619, 2625, 2631, 2638, 2586]
ch1 : [3191, 3191, 3189, 3189, 3193, 3190, 3191, 3192, 3193, 3190]
ch2 : [1513, 1511, 1500, 1500, 1510, 1515, 1516, 1510, 1510, 1512]
ch3 : [2942, 2942, 2943, 2946, 2949, 2940, 2943, 2943, 2942, 2943]
ch0 : [2581, 2650, 2327, 2532, 2630, 2636, 2639, 2613, 2611, 2647]
ch1 : [3207, 3191, 3194, 3187, 3192, 3196, 3190, 3191, 3191, 3188]
ch2 : [1511, 1494, 1485, 1513, 1514, 1513, 1507, 1509, 1510, 1500]
ch3 : [2952, 2942, 2942, 2942, 2946, 2950, 2943, 2943, 2943, 2942]
ch0 : [2640, 2503, 2618, 2633, 2629, 2639, 2593, 2568, 2650, 2421]
ch1 : [3189, 3191, 3191, 3186, 3191, 3191, 3191, 3190, 3191, 3193]
ch2 : [1495, 1502, 1514, 1510, 1511, 1513, 1508, 1510, 1492, 1493]
ch3 : [2941, 2950, 2947, 2945, 2945, 2931, 2943, 2948, 2943, 2945]
ch0 : [2532, 2622, 2634, 2617, 2612, 2624, 2647, 2646, 2480, 2623]
ch1 : [3191, 3193, 3190, 3189, 3192, 3191, 3194, 3193, 3196, 3192]
ch2 : [1516, 1507, 1517, 1507, 1505, 1505, 1499, 1494, 1507, 1497]
ch3 : [2946, 2946, 2946, 2943, 2943, 2939, 2943, 2945, 2946, 2946]
ch0 : [2620, 2639, 2642, 2602, 2581, 2641, 2487, 2527, 2619, 2632]
ch1 : [3191, 3187, 3188, 3188, 3191, 3190, 3194, 3187, 3193, 3192]
ch2 : [1511, 1510, 1510, 1507, 1510, 1502, 1492, 1512, 1514, 1510]
ch3 : [2945, 2946, 2939, 2943, 2937, 2942, 2943, 2949, 2946, 2949]
ch0 : [2640, 2608, 2619, 2647, 2647, 2484, 2607, 2640, 2638, 2637]
ch1 : [3191, 3192, 3188, 3194, 3190, 3201, 3187, 3191, 3193, 3193]
ch2 : [1503, 1511, 1508, 1501, 1493, 1507, 1515, 1510, 1510, 1508]
ch3 : [2956, 2942, 2939, 2943, 2947, 2949, 2948, 2942, 2936, 2945]
ch0 : [2613, 2566, 2650, 2536, 2508, 2609, 2640, 2641, 2593, 2621]
ch1 : [3195, 3193, 3191, 3191, 3195, 3191, 3191, 3193, 3192, 3194]
ch2 : [1519, 1506, 1509, 1492, 1511, 1514, 1507, 1506, 1510, 1508]
ch3 : [2943, 2950, 2942, 2939, 2949, 2947, 2946, 2941, 2943, 2943]
ch0 : [2649, 2643, 2469, 2616, 2636, 2636, 2647, 2606, 2578, 2647]
ch1 : [3192, 3189, 3206, 3192, 3189, 3181, 3191, 3194, 3191, 3193]
ch2 : [1496, 1491, 1511, 1512, 1504, 1507, 1509, 1506, 1507, 1494]
ch3 : [2945, 2950, 2952, 2950, 2946, 2944, 2948, 2944, 2939, 2942]
ch0 : [2583, 2506, 2622, 2633, 2644, 2627, 2632, 2649, 2648, 2456]
ch1 : [3194, 3197, 3191, 3190, 3193, 3187, 3192, 3192, 3186, 3187]
ch2 : [1493, 1507, 1517, 1506, 1514, 1509, 1508, 1499, 1496, 1509]
ch3 : [2942, 2947, 2948, 2951, 2943, 2951, 2945, 2943, 2949, 2945]
ch0 : [2604, 2636, 2633, 2633, 2599, 2583, 2649, 2645, 2485, 2617]
ch1 : [3194, 3192, 3187, 3187, 3191, 3186, 3187, 3189, 3194, 3193]
ch2 : [1513, 1513, 1507, 1501, 1508, 1509, 1496, 1486, 1509, 1512]
ch3 : [2949, 2948, 2947, 2944, 2943, 2945, 2943, 2939, 2953, 2949]
ch0 : [2630, 2643, 2630, 2629, 2651, 2647, 2429, 2601, 2632, 2610]
ch1 : [3192, 3187, 3192, 3191, 3191, 3191, 3191, 3194, 3193, 3194]
ch2 : [1516, 1511, 1510, 1508, 1503, 1491, 1499, 1510, 1509, 1509]
ch3 : [2945, 2940, 2943, 2945, 2944, 2943, 2950, 2943, 2944, 2958]
ch0 : [2638, 2607, 2586, 2645, 2633, 2484, 2616, 2636, 2629, 2644]
ch1 : [3190, 3189, 3191, 3190, 3192, 3195, 3175, 3193, 3193, 3193]
ch2 : [1508, 1506, 1505, 1497, 1492, 1507, 1516, 1499, 1507, 1504]
ch3 : [2942, 2943, 2939, 2944, 2938, 2946, 2947, 2948, 2957, 2948]
ch0 : [2616, 2648, 2653, 2423, 2584, 2635, 2629, 2641, 2617, 2599]
ch1 : [3191, 3194, 3193, 3192, 3192, 3190, 3189, 3195, 3193, 3191]
ch2 : [1491, 1504, 1490, 1492, 1509, 1512, 1507, 1506, 1505, 1506]
ch3 : [2943, 2952, 2946, 2943, 2948, 2946, 2943, 2949, 2946, 2946]
ch0 : [2650, 2646, 2478, 2618, 2629, 2642, 2637, 2618, 2649, 2653]
ch1 : [3191, 3189, 3193, 3191, 3188, 3190, 3197, 3196, 3190, 3195]
ch2 : [1480, 1483, 1505, 1518, 1505, 1505, 1503, 1505, 1498, 1492]
ch3 : [2943, 2934, 2947, 2947, 2945, 2947, 2942, 2941, 2943, 2949]
ch0 : [2420, 2593, 2631, 2637, 2644, 2631, 2586, 2652, 2652, 2473]
ch1 : [3193, 3194, 3193, 3189, 3190, 3195, 3190, 3193, 3185, 3194]
ch2 : [1497, 1511, 1509, 1508, 1500, 1506, 1510, 1496, 1486, 1512]
ch3 : [2951, 2948, 2946, 2933, 2949, 2943, 2948, 2945, 2942, 2945]
ch0 : [2606, 2636, 2642, 2646, 2621, 2640, 2654, 2440, 2580, 2644]
ch1 : [3188, 3192, 3193, 3193, 3192, 3192, 3190, 3200, 3194, 3191]
ch2 : [1510, 1508, 1504, 1505, 1505, 1501, 1495, 1495, 1509, 1511]
ch3 : [2948, 2949, 2945, 2942, 2942, 2943, 2943, 2949, 2946, 2947]
ch0 : [2625, 2640, 2619, 2603, 2650, 2571, 2439, 2604, 2634, 2644]
ch1 : [3191, 3194, 3189, 3187, 3195, 3185, 3193, 3186, 3195, 3192]
ch2 : [1507, 1507, 1499, 1502, 1494, 1484, 1504, 1511, 1507, 1492]
ch3 : [2946, 2932, 2942, 2944, 2947, 2944, 2946, 2949, 2947, 2949]
ch0 : [2643, 2609, 2642, 2651, 2510, 2585, 2642, 2631, 2643, 2630]
ch1 : [3187, 3191, 3177, 3193, 3197, 3192, 3190, 3192, 3190, 3193]
ch2 : [1496, 1494, 1501, 1489, 1492, 1509, 1507, 1512, 1502, 1504]
ch3 : [2942, 2943, 2944, 2945, 2949, 2947, 2953, 2948, 2946, 2944]
ch0 : [2614, 2651, 2645, 2421, 2591, 2637, 2639, 2639, 2609, 2609]
ch1 : [3192, 3191, 3188, 3192, 3191, 3192, 3193, 3195, 3192, 3193]
ch2 : [1503, 1499, 1484, 1505, 1508, 1507, 1505, 1504, 1503, 1504]
ch3 : [2943, 2944, 2942, 2946, 2949, 2946, 2947, 2944, 2945, 2943]
ch0 : [2650, 2548, 2576, 2631, 2618, 2642, 2630, 2609, 2654, 2650]
ch1 : [3194, 3189, 3192, 3192, 3197, 3190, 3189, 3187, 3191, 3193]
ch2 : [1492, 1497, 1520, 1512, 1508, 1508, 1503, 1508, 1498, 1490]
ch3 : [2943, 2950, 2952, 2948, 2947, 2933, 2954, 2944, 2948, 2943]
ch0 : [2630, 2620, 2634, 2619, 2632, 2643, 2650, 2408, 2578, 2608]
ch1 : [3199, 3191, 3197, 3191, 3191, 3192, 3193, 3192, 3194, 3188]
ch2 : [1515, 1512, 1509, 1510, 1504, 1503, 1491, 1507, 1512, 1517]
ch3 : [2947, 2947, 2941, 2939, 2946, 2943, 2943, 2943, 2946, 2947]
ch0 : [2639, 2640, 2615, 2596, 2646, 2608, 2554, 2633, 2624, 2637]
ch1 : [3190, 3189, 3187, 3192, 3193, 3190, 3188, 3191, 3195, 3193]
ch2 : [1507, 1504, 1510, 1518, 1486, 1496, 1510, 1516, 1509, 1509]
ch3 : [2948, 2937, 2944, 2950, 2941, 2943, 2935, 2944, 2949, 2948]
ch0 : [2627, 2613, 2647, 2650, 2360, 2564, 2623, 2628, 2637, 2609]
ch1 : [3190, 3188, 3196, 3191, 3189, 3190, 3189, 3192, 3191, 3190]
ch2 : [1502, 1505, 1511, 1493, 1499, 1511, 1511, 1507, 1514, 1499]
ch3 : [2935, 2942, 2944, 2943, 2945, 2942, 2936, 2947, 2940, 2941]
ch0 : [2606, 2656, 2647, 2534, 2635, 2625, 2633, 2628, 2616, 2645]
ch1 : [3191, 3186, 3188, 3195, 3188, 3194, 3192, 3193, 3191, 3188]
ch2 : [1503, 1494, 1485, 1501, 1505, 1494, 1501, 1501, 1499, 1499]
ch3 : [2943, 2943, 2943, 2946, 2944, 2948, 2943, 2941, 2945, 2947]
ch0 : [2601, 2361, 2575, 2621, 2631, 2635, 2592, 2592, 2658, 2630]
ch1 : [3194, 3194, 3187, 3187, 3192, 3193, 3192, 3196, 3192, 3190]
ch2 : [1483, 1489, 1502, 1503, 1498, 1493, 1496, 1492, 1482, 1486]
ch3 : [2943, 2943, 2949, 2951, 2951, 2943, 2942, 2945, 2954, 2943]
ch0 : [2533, 2626, 2627, 2636, 2631, 2602, 2644, 2645, 2335, 2575]
ch1 : [3193, 3192, 3191, 3191, 3192, 3193, 3193, 3191, 3193, 3191]
ch2 : [1504, 1499, 1495, 1493, 1496, 1494, 1495, 1478, 1478, 1493]
ch3 : [2951, 2934, 2947, 2947, 2942, 2947, 2943, 2943, 2944, 2947]
ch0 : [2633, 2637, 2639, 2616, 2616, 2644, 2628, 2529, 2613, 2622]
ch1 : [3190, 3192, 3191, 3195, 3191, 3190, 3202, 3196, 3181, 3193]
ch2 : [1491, 1502, 1487, 1484, 1484, 1476, 1469, 1483, 1487, 1483]
ch3 : [2946, 2947, 2943, 2945, 2943, 2943, 2945, 2958, 2946, 2943]
ch0 : [2636, 2635, 2596, 2640, 2647, 2319, 2550, 2633, 2629, 2644]
ch1 : [3192, 3195, 3191, 3191, 3190, 3194, 3190, 3182, 3188, 3193]
ch2 : [1480, 1479, 1481, 1488, 1470, 1477, 1489, 1494, 1494, 1494]
ch3 : [2943, 2938, 2946, 2942, 2942, 2942, 2948, 2946, 2945, 2940]
ch0 : [2606, 2615, 2646, 2645, 2498, 2624, 2645, 2636, 2633, 2596]
ch1 : [3192, 3192, 3192, 3192, 3191, 3197, 3190, 3191, 3193, 3192]
ch2 : [1489, 1494, 1476, 1480, 1500, 1501, 1501, 1479, 1491, 1491]
ch3 : [2938, 2945, 2943, 2946, 2946, 2944, 2945, 2945, 2943, 2944]
ch0 : [2600, 2640, 2314, 2547, 2620, 2636, 2639, 2603, 2607, 2647]
ch1 : [3192, 3191, 3184, 3192, 3190, 3193, 3196, 3195, 3189, 3192]
ch2 : [1489, 1478, 1480, 1506, 1494, 1493, 1496, 1489, 1488, 1475]
ch3 : [2943, 2938, 2943, 2946, 2941, 2952, 2942, 2943, 2943, 2943]
ch0 : [2628, 2509, 2615, 2634, 2632, 2628, 2581, 2578, 2649, 2312]
ch1 : [3191, 3189, 3193, 3190, 3192, 3192, 3193, 3193, 3191, 3194]
ch2 : [1477, 1487, 1497, 1496, 1485, 1489, 1487, 1494, 1473, 1466]
ch3 : [2945, 2946, 2943, 2943, 2942, 2941, 2943, 2942, 2939, 2940]
ch0 : [2548, 2618, 2635, 2642, 2605, 2607, 2645, 2649, 2473, 2624]
ch1 : [3187, 3196, 3190, 3191, 3192, 3191, 3195, 3190, 3191, 3190]
ch2 : [1492, 1491, 1493, 1489, 1480, 1479, 1466, 1465, 1485, 1485]
ch3 : [2948, 2944, 2942, 2940, 2937, 2942, 2941, 2943, 2945, 2943]
ch0 : [2619, 2637, 2633, 2582, 2575, 2649, 2383, 2531, 2623, 2636]
ch1 : [3183, 3193, 3191, 3192, 3194, 3192, 3194, 3190, 3191, 3191]
ch2 : [1486, 1471, 1481, 1478, 1490, 1462, 1461, 1480, 1478, 1473]
ch3 : [2944, 2942, 2943, 2942, 2943, 2940, 2942, 2947, 2944, 2943]
ch0 : [2637, 2599, 2624, 2641, 2644, 2476, 2616, 2628, 2639, 2630]
ch1 : [3193, 3191, 3191, 3205, 3194, 3193, 3189, 3191, 3193, 3190]
ch2 : [1469, 1468, 1475, 1464, 1463, 1461, 1486, 1482, 1479, 1478]
ch3 : [2941, 2935, 2944, 2939, 2943, 2949, 2936, 2945, 2941, 2951]
ch0 : [2605, 2580, 2646, 2475, 2535, 2610, 2635, 2641, 2622, 2627]
ch1 : [3192, 3191, 3193, 3187, 3193, 3190, 3189, 3190, 3197, 3195]
ch2 : [1475, 1481, 1471, 1468, 1486, 1489, 1486, 1486, 1485, 1484]
ch3 : [2943, 2943, 2940, 2941, 2944, 2948, 2946, 2943, 2953, 2941]
ch0 : [2652, 2644, 2475, 2610, 2632, 2642, 2639, 2597, 2550, 2649]
ch1 : [3192, 3189, 3191, 3191, 3187, 3186, 3191, 3192, 3187, 3186]
ch2 : [1479, 1472, 1483, 1489, 1489, 1484, 1482, 1480, 1483, 1466]
ch3 : [2938, 2932, 2946, 2943, 2950, 2953, 2939, 2942, 2954, 2945]
ch0 : [2503, 2522, 2611, 2629, 2640, 2628, 2625, 2648, 2649, 2452]
ch1 : [3190, 3194, 3194, 3186, 3190, 3189, 3189, 3193, 3191, 3192]
ch2 : [1465, 1476, 1478, 1474, 1487, 1469, 1473, 1460, 1452, 1461]
ch3 : [2942, 2948, 2947, 2944, 2939, 2941, 2954, 2944, 2943, 2943]
ch0 : [2598, 2635, 2642, 2641, 2609, 2578, 2646, 2588, 2508, 2611]
ch1 : [3185, 3192, 3192, 3191, 3191, 3187, 3191, 3193, 3196, 3191]
ch2 : [1470, 1463, 1465, 1465, 1466, 1462, 1455, 1446, 1466, 1466]
ch3 : [2946, 2942, 2944, 2945, 2943, 2934, 2943, 2942, 2942, 2942]
ch0 : [2640, 2642, 2634, 2631, 2651, 2648, 2438, 2599, 2630, 2629]
ch1 : [3190, 3177, 3194, 3193, 3191, 3190, 3195, 3191, 3190, 3193]
ch2 : [1465, 1461, 1459, 1455, 1450, 1440, 1454, 1456, 1453, 1446]
ch3 : [2947, 2942, 2943, 2941, 2942, 2950, 2945, 2943, 2952, 2944]
ch0 : [2641, 2617, 2566, 2651, 2639, 2499, 2621, 2633, 2641, 2627]
ch1 : [3194, 3191, 3194, 3192, 3187, 3195, 3193, 3192, 3191, 3190]
ch2 : [1450, 1446, 1447, 1437, 1424, 1442, 1451, 1443, 1433, 1431]
ch3 : [2942, 2943, 2942, 2942, 2945, 2946, 2946, 2945, 2951, 2942]
ch0 : [2646, 2629, 2480, 2614, 2636, 2639, 2638, 2617, 2646, 2647]
ch1 : [3192, 3190, 3194, 3188, 3192, 3189, 3196, 3196, 3196, 3193]
ch2 : [1413, 1406, 1418, 1402, 1416, 1407, 1409, 1411, 1408, 1392]
ch3 : [2943, 2941, 2946, 2948, 2952, 2952, 2943, 2940, 2945, 2943]
ch0 : [2425, 2600, 2631, 2620, 2640, 2616, 2595, 2651, 2604, 2471]
ch1 : [3189, 3203, 3193, 3193, 3193, 3193, 3195, 3189, 3192, 3195]
ch2 : [1396, 1420, 1405, 1403, 1406, 1394, 1406, 1391, 1382, 1399]
ch3 : [2945, 2948, 2948, 2943, 2942, 2945, 2943, 2939, 2942, 2948]
ch0 : [2606, 2641, 2644, 2636, 2624, 2644, 2647, 2410, 2581, 2636]
ch1 : [3192, 3190, 3193, 3191, 3196, 3189, 3190, 3186, 3192, 3194]
ch2 : [1404, 1391, 1400, 1393, 1400, 1400, 1385, 1379, 1386, 1395]
ch3 : [2946, 2947, 2940, 2941, 2942, 2946, 2945, 2942, 2950, 2943]
ch0 : [2632, 2639, 2602, 2601, 2643, 2637, 2450, 2606, 2627, 2641]
ch1 : [3193, 3190, 3190, 3192, 3190, 3192, 3189, 3191, 3190, 3190]
ch2 : [1398, 1396, 1389, 1390, 1377, 1368, 1383, 1392, 1386, 1387]
ch3 : [2948, 2941, 2942, 2952, 2937, 2933, 2949, 2945, 2944, 2945]
ch0 : [2637, 2614, 2649, 2649, 2452, 2581, 2626, 2636, 2640, 2611]
ch1 : [3200, 3190, 3196, 3189, 3200, 3191, 3177, 3190, 3190, 3195]
ch2 : [1398, 1389, 1390, 1373, 1375, 1389, 1389, 1391, 1384, 1387]
ch3 : [2941, 2942, 2945, 2931, 2946, 2947, 2943, 2946, 2944, 2943]
ch0 : [2600, 2651, 2647, 2435, 2611, 2631, 2640, 2635, 2599, 2628]
ch1 : [3193, 3190, 3195, 3189, 3192, 3192, 3194, 3187, 3195, 3193]
ch2 : [1386, 1376, 1366, 1381, 1388, 1385, 1382, 1377, 1379, 1373]
ch3 : [2943, 2943, 2941, 2946, 2945, 2949, 2945, 2943, 2940, 2944]
ch0 : [2648, 2536, 2583, 2627, 2626, 2639, 2616, 2613, 2644, 2651]
ch1 : [3194, 3191, 3192, 3187, 3188, 3191, 3189, 3188, 3189, 3189]
ch2 : [1363, 1372, 1377, 1382, 1370, 1379, 1377, 1378, 1365, 1361]
ch3 : [2943, 2947, 2942, 2941, 2946, 2943, 2947, 2943, 2944, 2945]
ch0 : [2414, 2593, 2639, 2642, 2645, 2625, 2596, 2646, 2576, 2560]
ch1 : [3191, 3190, 3191, 3192, 3190, 3192, 3193, 3180, 3193, 3195]
ch2 : [1375, 1379, 1394, 1378, 1371, 1381, 1379, 1366, 1367, 1382]
ch3 : [2947, 2943, 2945, 2947, 2940, 2941, 2943, 2941, 2949, 2942]
ch0 : [2621, 2617, 2638, 2618, 2616, 2649, 2641, 2405, 2597, 2631]
ch1 : [3191, 3191, 3189, 3196, 3191, 3191, 3190, 3191, 3193, 3190]
ch2 : [1382, 1386, 1378, 1377, 1380, 1373, 1357, 1377, 1380, 1384]
ch3 : [2946, 2949, 2943, 2943, 2945, 2939, 2944, 2945, 2947, 2946]
ch0 : [2648, 2641, 2611, 2599, 2645, 2623, 2558, 2621, 2629, 2632]
ch1 : [3192, 3192, 3193, 3193, 3192, 3191, 3194, 3193, 3187, 3190]
ch2 : [1385, 1383, 1380, 1378, 1372, 1363, 1385, 1387, 1390, 1387]
ch3 : [2946, 2943, 2939, 2944, 2943, 2943, 2949, 2945, 2943, 2948]
ch0 : [2634, 2634, 2650, 2650, 2386, 2569, 2631, 2636, 2638, 2623]
ch1 : [3192, 3188, 3191, 3194, 3197, 3192, 3190, 3189, 3191, 3194]
ch2 : [1389, 1388, 1385, 1375, 1389, 1400, 1396, 1401, 1394, 1409]
ch3 : [2955, 2944, 2943, 2942, 2942, 2947, 2948, 2947, 2943, 2943]
ch0 : [2594, 2651, 2641, 2553, 2627, 2628, 2636, 2618, 2608, 2641]
ch1 : [3192, 3190, 3199, 3190, 3191, 3186, 3193, 3186, 3195, 3190]
ch2 : [1398, 1402, 1385, 1402, 1411, 1404, 1403, 1404, 1402, 1403]
ch3 : [2946, 2939, 2950, 2945, 2946, 2947, 2939, 2933, 2943, 2948]
ch0 : [2643, 2391, 2569, 2632, 2631, 2633, 2597, 2591, 2652, 2647]
ch1 : [3187, 3193, 3192, 3190, 3187, 3191, 3187, 3191, 3189, 3185]
ch2 : [1388, 1401, 1411, 1413, 1408, 1409, 1403, 1406, 1388, 1391]
ch3 : [2939, 2945, 2948, 2947, 2943, 2942, 2942, 2943, 2947, 2944]
ch0 : [2537, 2630, 2631, 2646, 2622, 2604, 2644, 2648, 2349, 2571]
ch1 : [3189, 3191, 3191, 3193, 3193, 3185, 3187, 3191, 3194, 3191]
ch2 : [1407, 1415, 1407, 1406, 1407, 1406, 1402, 1390, 1399, 1418]
ch3 : [2946, 2944, 2957, 2941, 2945, 2943, 2945, 2945, 2945, 2949]
ch0 : [2630, 2633, 2642, 2613, 2600, 2655, 2648, 2526, 2637, 2633]
ch1 : [3190, 3191, 3192, 3186, 3200, 3190, 3191, 3192, 3191, 3193]
ch2 : [1416, 1408, 1413, 1411, 1418, 1406, 1405, 1421, 1427, 1426]
ch3 : [2948, 2948, 2942, 2948, 2944, 2943, 2949, 2946, 2942, 2943]
ch0 : [2638, 2634, 2595, 2645, 2650, 2328, 2563, 2626, 2630, 2632]
ch1 : [3192, 3194, 3189, 3193, 3193, 3188, 3187, 3186, 3190, 3188]
ch2 : [1425, 1427, 1423, 1426, 1409, 1424, 1434, 1433, 1431, 1428]
ch3 : [2941, 2943, 2945, 2945, 2941, 2943, 2953, 2947, 2951, 2943]
ch0 : [2613, 2603, 2644, 2644, 2514, 2615, 2630, 2635, 2638, 2588]
ch1 : [3187, 3191, 3192, 3191, 3192, 3194, 3205, 3186, 3192, 3186]
ch2 : [1430, 1435, 1415, 1421, 1431, 1439, 1435, 1432, 1434, 1436]
ch3 : [2934, 2943, 2948, 2947, 2953, 2946, 2946, 2947, 2948, 2949]
ch0 : [2622, 2648, 2330, 2558, 2614, 2626, 2634, 2607, 2599, 2645]
ch1 : [3181, 3190, 3194, 3192, 3196, 3190, 3189, 3185, 3193, 3193]
ch2 : [1436, 1420, 1429, 1440, 1440, 1439, 1439, 1438, 1437, 1426]
ch3 : [2946, 2945, 2943, 2946, 2950, 2949, 2943, 2945, 2943, 2946]
ch0 : [2645, 2514, 2620, 2619, 2639, 2630, 2597, 2586, 2603, 2320]
ch1 : [3203, 3194, 3190, 3191, 3191, 3190, 3194, 3193, 3190, 3193]
ch2 : [1425, 1439, 1440, 1431, 1434, 1431, 1440, 1442, 1428, 1427]
ch3 : [2937, 2958, 2948, 2946, 2945, 2946, 2945, 2948, 2943, 2944]
ch0 : [2556, 2617, 2631, 2635, 2616, 2624, 2643, 2646, 2489, 2614]
ch1 : [3192, 3192, 3191, 3194, 3185, 3195, 3195, 3190, 3191, 3190]
ch2 : [1452, 1448, 1463, 1444, 1445, 1443, 1433, 1441, 1448, 1450]
ch3 : [2947, 2947, 2948, 2946, 2943, 2943, 2947, 2948, 2951, 2948]
ch0 : [2632, 2644, 2634, 2586, 2574, 2648, 2343, 2532, 2612, 2632]
ch1 : [3194, 3180, 3193, 3190, 3191, 3189, 3197, 3189, 3193, 3193]
ch2 : [1451, 1454, 1450, 1451, 1450, 1437, 1439, 1454, 1445, 1457]
ch3 : [2958, 2948, 2945, 2946, 2961, 2939, 2948, 2948, 2948, 2949]
ch0 : [2631, 2612, 2622, 2645, 2655, 2482, 2610, 2619, 2635, 2629]
ch1 : [3190, 3190, 3191, 3193, 3190, 3189, 3196, 3186, 3193, 3187]
ch2 : [1453, 1438, 1458, 1445, 1440, 1454, 1461, 1453, 1453, 1457]
ch3 : [2943, 2939, 2943, 2944, 2948, 2949, 2941, 2947, 2948, 2943]
ch0 : [2646, 2640, 2483, 2600, 2632, 2635, 2630, 2585, 2574, 2650]
ch1 : [3193, 3189, 3196, 3187, 3189, 3191, 3193, 3193, 3190, 3186]
ch2 : [1452, 1448, 1459, 1462, 1461, 1464, 1459, 1467, 1461, 1446]
ch3 : [2949, 2949, 2947, 2948, 2947, 2947, 2943, 2949, 2958, 2946]
ch0 : [2457, 2519, 2611, 2626, 2636, 2609, 2617, 2645, 2641, 2460]
ch1 : [3193, 3192, 3192, 3193, 3193, 3191, 3188, 3191, 3188, 3191]
ch2 : [1443, 1459, 1464, 1460, 1458, 1459, 1455, 1447, 1438, 1452]
ch3 : [2952, 2950, 2952, 2948, 2947, 2946, 2944, 2941, 2946, 2952]
ch0 : [2603, 2619, 2634, 2632, 2589, 2582, 2655, 2556, 2521, 2612]
ch1 : [3191, 3191, 3190, 3193, 3191, 3192, 3193, 3188, 3192, 3187]
ch2 : [1463, 1462, 1456, 1457, 1455, 1454, 1442, 1440, 1459, 1460]
ch3 : [2948, 2947, 2961, 2948, 2950, 2942, 2944, 2939, 2950, 2948]
ch0 : [2633, 2639, 2618, 2623, 2645, 2621, 2444, 2594, 2635, 2633]
ch1 : [3191, 3190, 3191, 3195, 3188, 3190, 3191, 3194, 3196, 3191]
ch2 : [1457, 1454, 1453, 1449, 1445, 1455, 1449, 1461, 1458, 1455]
ch3 : [2947, 2946, 2941, 2943, 2950, 2951, 2948, 2946, 2956, 2947]
ch0 : [2633, 2612, 2562, 2644, 2641, 2488, 2620, 2625, 2639, 2626]
ch1 : [3192, 3190, 3190, 3188, 3190, 3197, 3193, 3188, 3190, 3200]
ch2 : [1455, 1458, 1459, 1442, 1439, 1459, 1462, 1456, 1456, 1458]
ch3 : [2937, 2941, 2948, 2945, 2943, 2951, 2948, 2950, 2949, 2948]
ch0 : [2614, 2644, 2635, 2436, 2586, 2633, 2616, 2632, 2599, 2583]
ch1 : [3190, 3193, 3191, 3193, 3200, 3180, 3181, 3190, 3187, 3194]
ch2 : [1459, 1451, 1441, 1447, 1460, 1458, 1458, 1456, 1454, 1455]
ch3 : [2945, 2954, 2939, 2950, 2944, 2948, 2944, 2946, 2945, 2944]
ch0 : [2651, 2608, 2487, 2622, 2630, 2639, 2618, 2621, 2648, 2644]
ch1 : [3196, 3191, 3193, 3188, 3194, 3191, 3192, 3186, 3180, 3185]
ch2 : [1445, 1444, 1456, 1462, 1458, 1456, 1468, 1456, 1457, 1440]
ch3 : [2943, 2946, 2948, 2948, 2949, 2943, 2943, 2948, 2946, 2947]
ch0 : [2427, 2582, 2632, 2625, 2630, 2599, 2582, 2644, 2630, 2455]
ch1 : [3192, 3192, 3191, 3189, 3190, 3193, 3193, 3193, 3191, 3196]
ch2 : [1448, 1460, 1460, 1462, 1460, 1456, 1455, 1458, 1441, 1456]
ch3 : [2943, 2948, 2948, 2947, 2945, 2948, 2947, 2943, 2945, 2961]
ch0 : [2628, 2629, 2619, 2607, 2646, 2588, 2465, 2597, 2629, 2638]
ch1 : [3192, 3191, 3195, 3194, 3193, 3195, 3193, 3191, 3193, 3200]
ch2 : [1458, 1454, 1454, 1450, 1444, 1438, 1441, 1465, 1458, 1466]
ch3 : [2950, 2941, 2946, 2948, 2946, 2943, 2946, 2950, 2950, 2947]
ch0 : [2640, 2615, 2640, 2642, 2411, 2575, 2640, 2629, 2638, 2601]
ch1 : [3204, 3194, 3192, 3191, 3192, 3191, 3190, 3188, 3190, 3192]
ch2 : [1456, 1456, 1462, 1444, 1445, 1460, 1464, 1457, 1459, 1455]
ch3 : [2944, 2949, 2932, 2948, 2947, 2950, 2950, 2945, 2946, 2942]
ch0 : [2586, 2652, 2642, 2449, 2601, 2633, 2637, 2625, 2600, 2636]
ch1 : [3193, 3191, 3189, 3192, 3185, 3193, 3190, 3190, 3191, 3194]
ch2 : [1460, 1449, 1440, 1440, 1461, 1461, 1462, 1460, 1454, 1456]
ch3 : [2942, 2949, 2947, 2949, 2947, 2950, 2943, 2946, 2947, 2943]
ch0 : [2654, 2429, 2583, 2626, 2624, 2632, 2619, 2594, 2651, 2641]
ch1 : [3189, 3191, 3190, 3189, 3191, 3187, 3195, 3190, 3190, 3187]
ch2 : [1442, 1445, 1458, 1458, 1462, 1456, 1457, 1459, 1451, 1440]
ch3 : [2939, 2943, 2948, 2943, 2946, 2944, 2929, 2948, 2943, 2946]
ch0 : [2422, 2601, 2640, 2636, 2641, 2598, 2609, 2646, 2527, 2565]
ch1 : [3191, 3191, 3193, 3192, 3177, 3195, 3192, 3190, 3191, 3191]
ch2 : [1460, 1463, 1461, 1455, 1455, 1458, 1455, 1440, 1439, 1459]
ch3 : [2943, 2945, 2949, 2947, 2943, 2945, 2949, 2946, 2952, 2948]
ch0 : [2632, 2624, 2628, 2607, 2612, 2649, 2647, 2418, 2593, 2631]
ch1 : [3188, 3189, 3187, 3187, 3202, 3189, 3192, 3193, 3194, 3193]
ch2 : [1464, 1462, 1460, 1455, 1455, 1451, 1440, 1453, 1459, 1461]
ch3 : [2951, 2950, 2946, 2943, 2946, 2941, 2946, 2947, 2950, 2947]
ch0 : [2642, 2636, 2612, 2608, 2641, 2583, 2571, 2627, 2619, 2642]
ch1 : [3196, 3194, 3192, 3192, 3190, 3196, 3193, 3190, 3190, 3191]
ch2 : [1458, 1457, 1456, 1455, 1443, 1443, 1458, 1461, 1454, 1456]
ch3 : [2953, 2949, 2949, 2946, 2949, 2958, 2952, 2946, 2948, 2943]
ch0 : [2615, 2626, 2646, 2625, 2417, 2589, 2613, 2641, 2639, 2607]
ch1 : [3190, 3190, 3202, 3192, 3190, 3193, 3195, 3190, 3202, 3194]
ch2 : [1450, 1455, 1448, 1443, 1458, 1461, 1463, 1460, 1454, 1457]
ch3 : [2941, 2943, 2944, 2942, 2946, 2948, 2949, 2947, 2938, 2945]
ch0 : [2595, 2647, 2612, 2562, 2632, 2622, 2629, 2616, 2605, 2646]
ch1 : [3187, 3187, 3193, 3196, 3191, 3192, 3190, 3191, 3193, 3200]
ch2 : [1456, 1444, 1451, 1459, 1462, 1456, 1463, 1460, 1458, 1453]
ch3 : [2949, 2945, 2948, 2940, 2946, 2943, 2947, 2947, 2960, 2947]
ch0 : [2633, 2385, 2580, 2635, 2643, 2634, 2607, 2606, 2651, 2637]
ch1 : [3191, 3192, 3188, 3190, 3192, 3190, 3204, 3193, 3189, 3189]
ch2 : [1437, 1452, 1460, 1458, 1456, 1455, 1459, 1456, 1445, 1440]
ch3 : [2945, 2945, 2953, 2953, 2950, 2943, 2945, 2945, 2944, 2946]
ch0 : [2622, 2631, 2636, 2602, 2608, 2646, 2644, 2528, 2622, 2622]
ch1 : [3192, 3191, 3190, 3195, 3191, 3175, 3191, 3196, 3193, 3197]
ch2 : [1449, 1460, 1457, 1460, 1460, 1451, 1445, 1460, 1463, 1463]
ch3 : [2948, 2944, 2943, 2947, 2946, 2946, 2949, 2957, 2946, 2948]
ch0 : [2637, 2628, 2609, 2645, 2648, 2353, 2574, 2628, 2635, 2625]
ch1 : [3191, 3189, 3198, 3188, 3190, 3192, 3190, 3189, 3187, 3196]
ch2 : [1459, 1460, 1464, 1457, 1448, 1455, 1468, 1465, 1464, 1458]
ch3 : [2947, 2944, 2947, 2945, 2946, 2943, 2950, 2950, 2948, 2940]
ch0 : [2612, 2602, 2646, 2636, 2521, 2615, 2637, 2630, 2632, 2590]
ch1 : [3192, 3191, 3192, 3190, 3185, 3196, 3188, 3191, 3192, 3190]
ch2 : [1454, 1460, 1448, 1449, 1461, 1460, 1460, 1439, 1460, 1456]
ch3 : [2945, 2947, 2942, 2949, 2945, 2951, 2943, 2943, 2935, 2948]
ch0 : [2642, 2642, 2341, 2565, 2619, 2633, 2641, 2592, 2606, 2647]
ch1 : [3191, 3194, 3182, 3194, 3195, 3187, 3193, 3194, 3192, 3192]
ch2 : [1458, 1439, 1444, 1461, 1460, 1459, 1455, 1455, 1453, 1448]
ch3 : [2945, 2944, 2945, 2948, 2949, 2949, 2944, 2943, 2947, 2948]
ch0 : [2640, 2498, 2626, 2621, 2634, 2628, 2600, 2597, 2647, 2327]
ch1 : [3193, 3193, 3186, 3191, 3190, 3193, 3195, 3187, 3191, 3201]
ch2 : [1441, 1454, 1468, 1461, 1464, 1460, 1460, 1461, 1440, 1447]
ch3 : [2943, 2948, 2950, 2948, 2945, 2943, 2957, 2947, 2942, 2945]
ch0 : [2549, 2623, 2636, 2638, 2606, 2611, 2648, 2649, 2495, 2614]
ch1 : [3193, 3191, 3191, 3193, 3195, 3191, 3195, 3191, 3190, 3191]
ch2 : [1461, 1460, 1457, 1455, 1452, 1457, 1441, 1441, 1457, 1460]
ch3 : [2950, 2952, 2953, 2942, 2943, 2946, 2946, 2947, 2947, 2949]
ch0 : [2628, 2633, 2636, 2584, 2577, 2644, 2338, 2535, 2604, 2635]
ch1 : [3192, 3186, 3196, 3201, 3195, 3193, 3196, 3191, 3195, 3191]
ch2 : [1455, 1454, 1457, 1455, 1455, 1437, 1442, 1461, 1464, 1460]
ch3 : [2949, 2944, 2945, 2943, 2948, 2944, 2948, 2947, 2948, 2947]
ch0 : [2635, 2598, 2619, 2648, 2648, 2489, 2608, 2620, 2636, 2631]
ch1 : [3193, 3189, 3194, 3196, 3195, 3191, 3191, 3194, 3193, 3190]
ch2 : [1453, 1451, 1462, 1465, 1448, 1457, 1461, 1463, 1460, 1461]
ch3 : [2945, 2940, 2952, 2944, 2949, 2950, 2943, 2948, 2945, 2943]
ch0 : [2600, 2567, 2611, 2411, 2527, 2621, 2631, 2640, 2602, 2623]
ch1 : [3189, 3192, 3190, 3196, 3192, 3190, 3186, 3191, 3187, 3193]
ch2 : [1457, 1457, 1445, 1445, 1462, 1463, 1456, 1460, 1458, 1453]
ch3 : [2945, 2947, 2956, 2946, 2947, 2951, 2948, 2942, 2946, 2943]
ch0 : [2644, 2625, 2481, 2601, 2627, 2646, 2633, 2596, 2576, 2638]
ch1 : [3183, 3185, 3192, 3191, 3193, 3193, 3196, 3192, 3191, 3192]
ch2 : [1445, 1437, 1450, 1461, 1443, 1454, 1454, 1451, 1457, 1440]
ch3 : [2944, 2949, 2948, 2947, 2948, 2942, 2945, 2946, 2947, 2948]
ch0 : [2516, 2521, 2623, 2622, 2636, 2605, 2617, 2643, 2631, 2462]
ch1 : [3191, 3193, 3193, 3190, 3190, 3191, 3190, 3179, 3198, 3195]
ch2 : [1439, 1461, 1455, 1465, 1460, 1457, 1454, 1447, 1443, 1451]
ch3 : [2942, 2952, 2948, 2949, 2945, 2943, 2943, 2945, 2943, 2946]
ch0 : [2613, 2622, 2633, 2634, 2592, 2559, 2645, 2556, 2517, 2610]
ch1 : [3183, 3194, 3192, 3191, 3192, 3192, 3193, 3195, 3192, 3191]
ch2 : [1454, 1453, 1455, 1457, 1457, 1455, 1438, 1438, 1458, 1463]
ch3 : [2949, 2943, 2949, 2945, 2949, 2947, 2943, 2942, 2947, 2949]
ch0 : [2626, 2633, 2613, 2624, 2646, 2642, 2447, 2590, 2631, 2631]
ch1 : [3202, 3191, 3194, 3190, 3192, 3192, 3192, 3187, 3190, 3182]
ch2 : [1458, 1453, 1450, 1447, 1448, 1444, 1445, 1451, 1452, 1453]
ch3 : [2951, 2943, 2947, 2943, 2948, 2947, 2948, 2946, 2952, 2948]
ch0 : [2623, 2600, 2574, 2644, 2643, 2501, 2603, 2633, 2634, 2624]
ch1 : [3188, 3191, 3193, 3193, 3194, 3191, 3190, 3193, 3187, 3195]
ch2 : [1446, 1443, 1443, 1429, 1426, 1450, 1462, 1450, 1450, 1449]
ch3 : [2944, 2944, 2943, 2939, 2948, 2947, 2952, 2949, 2949, 2942]
ch0 : [2606, 2637, 2640, 2438, 2580, 2633, 2611, 2634, 2591, 2590]
ch1 : [3189, 3186, 3193, 3201, 3188, 3201, 3190, 3188, 3191, 3177]
ch2 : [1443, 1443, 1435, 1447, 1461, 1458, 1465, 1464, 1462, 1462]
ch3 : [2943, 2944, 2943, 2946, 2948, 2946, 2946, 2944, 2949, 2945]
ch0 : [2647, 2631, 2476, 2605, 2625, 2633, 2622, 2610, 2645, 2642]
ch1 : [3190, 3201, 3196, 3190, 3198, 3191, 3191, 3195, 3187, 3193]
ch2 : [1448, 1442, 1465, 1471, 1468, 1461, 1461, 1460, 1454, 1434]
ch3 : [2943, 2943, 2956, 2949, 2945, 2951, 2941, 2940, 2939, 2942]
ch0 : [2424, 2592, 2640, 2612, 2634, 2603, 2580, 2644, 2647, 2454]
ch1 : [3190, 3194, 3191, 3191, 3182, 3193, 3194, 3193, 3191, 3187]
ch2 : [1442, 1459, 1456, 1459, 1457, 1451, 1452, 1442, 1439, 1441]
ch3 : [2944, 2946, 2945, 2942, 2943, 2941, 2943, 2942, 2940, 2930]
ch0 : [2597, 2618, 2635, 2613, 2589, 2636, 2645, 2403, 2575, 2628]
ch1 : [3190, 3186, 3193, 3191, 3191, 3192, 3191, 3190, 3195, 3190]
ch2 : [1452, 1452, 1439, 1455, 1455, 1456, 1441, 1449, 1455, 1442]
ch3 : [2946, 2938, 2942, 2941, 2942, 2939, 2941, 2946, 2945, 2944]
ch0 : [2616, 2632, 2614, 2592, 2643, 2648, 2448, 2599, 2618, 2637]
ch1 : [3192, 3192, 3195, 3200, 3192, 3191, 3200, 3190, 3196, 3192]
ch2 : [1447, 1443, 1446, 1445, 1444, 1444, 1461, 1464, 1458, 1452]
ch3 : [2943, 2945, 2942, 2942, 2941, 2941, 2945, 2945, 2945, 2942]
ch0 : [2626, 2608, 2647, 2636, 2422, 2571, 2628, 2615, 2645, 2592]
ch1 : [3187, 3190, 3189, 3192, 3193, 3193, 3191, 3196, 3191, 3194]
ch2 : [1443, 1455, 1456, 1446, 1445, 1459, 1459, 1458, 1464, 1457]
ch3 : [2940, 2938, 2938, 2943, 2941, 2944, 2947, 2950, 2939, 2942]
ch0 : [2578, 2645, 2643, 2434, 2594, 2630, 2630, 2634, 2593, 2627]
ch1 : [3196, 3196, 3193, 3194, 3190, 3192, 3194, 3190, 3193, 3198]
ch2 : [1455, 1443, 1430, 1453, 1452, 1441, 1445, 1442, 1443, 1439]
ch3 : [2951, 2943, 2939, 2942, 2945, 2944, 2942, 2939, 2939, 2938]
ch0 : [2644, 2507, 2570, 2625, 2613, 2634, 2598, 2607, 2648, 2610]
ch1 : [3191, 3189, 3190, 3192, 3190, 3189, 3190, 3193, 3189, 3191]
ch2 : [1432, 1424, 1442, 1440, 1439, 1438, 1435, 1437, 1432, 1414]
ch3 : [2942, 2943, 2938, 2938, 2939, 2939, 2939, 2938, 2935, 2936]
ch0 : [2619, 2625, 2632, 2624, 2608, 2645, 2644, 2404, 2584, 2629]
ch1 : [3190, 3193, 3191, 3193, 3193, 3188, 3193, 3195, 3195, 3188]
ch2 : [1445, 1427, 1425, 1423, 1426, 1412, 1402, 1413, 1423, 1423]
ch3 : [2943, 2936, 2935, 2938, 2935, 2934, 2940, 2939, 2941, 2940]
ch0 : [2636, 2640, 2595, 2594, 2639, 2589, 2549, 2641, 2628, 2633]
ch1 : [3201, 3188, 3189, 3197, 3185, 3197, 3196, 3193, 3191, 3189]
ch2 : [1415, 1419, 1415, 1419, 1404, 1397, 1416, 1415, 1407, 1394]
ch3 : [2936, 2937, 2936, 2938, 2938, 2938, 2937, 2941, 2935, 2932]
ch0 : [2613, 2625, 2643, 2635, 2385, 2587, 2617, 2634, 2639, 2623]
ch1 : [3194, 3197, 3187, 3190, 3192, 3190, 3192, 3193, 3189, 3191]
ch2 : [1398, 1406, 1400, 1384, 1395, 1400, 1395, 1396, 1387, 1389]
ch3 : [2935, 2936, 2941, 2935, 2923, 2931, 2940, 2943, 2933, 2933]
ch0 : [2561, 2643, 2634, 2574, 2603, 2622, 2636, 2639, 2613, 2647]
ch1 : [3192, 3189, 3189, 3192, 3194, 3193, 3195, 3191, 3191, 3193]
ch2 : [1381, 1375, 1372, 1391, 1390, 1388, 1385, 1388, 1392, 1381]
ch3 : [2933, 2937, 2937, 2941, 2937, 2937, 2940, 2934, 2933, 2940]
ch0 : [2595, 2379, 2562, 2630, 2631, 2639, 2597, 2583, 2644, 2647]
ch1 : [3188, 3204, 3191, 3186, 3190, 3192, 3190, 3194, 3191, 3192]
ch2 : [1353, 1373, 1389, 1378, 1374, 1372, 1377, 1376, 1363, 1351]
ch3 : [2933, 2935, 2938, 2938, 2944, 2932, 2933, 2935, 2935, 2938]
ch0 : [2548, 2633, 2622, 2633, 2621, 2602, 2639, 2651, 2350, 2572]
ch1 : [3189, 3189, 3192, 3192, 3187, 3191, 3196, 3183, 3190, 3195]
ch2 : [1366, 1376, 1372, 1368, 1367, 1366, 1358, 1345, 1354, 1365]
ch3 : [2936, 2939, 2936, 2934, 2943, 2930, 2937, 2932, 2933, 2939]
ch0 : [2619, 2622, 2636, 2605, 2610, 2650, 2646, 2517, 2615, 2624]
ch1 : [3192, 3192, 3196, 3201, 3189, 3188, 3191, 3187, 3193, 3193]
ch2 : [1367, 1359, 1360, 1361, 1362, 1347, 1348, 1356, 1360, 1345]
ch3 : [2936, 2928, 2933, 2933, 2932, 2934, 2938, 2934, 2939, 2938]
ch0 : [2636, 2620, 2593, 2640, 2636, 2341, 2551, 2622, 2633, 2635]
ch1 : [3192, 3187, 3191, 3190, 3194, 3198, 3193, 3194, 3192, 3191]
ch2 : [1351, 1345, 1335, 1345, 1329, 1337, 1351, 1347, 1341, 1338]
ch3 : [2932, 2934, 2932, 2935, 2933, 2935, 2936, 2938, 2938, 2931]
ch0 : [2618, 2606, 2639, 2643, 2511, 2617, 2620, 2632, 2631, 2558]
ch1 : [3192, 3187, 3188, 3190, 3191, 3191, 3195, 3188, 3203, 3190]
ch2 : [1331, 1333, 1323, 1321, 1334, 1345, 1339, 1338, 1337, 1339]
ch3 : [2933, 2931, 2935, 2935, 2942, 2937, 2937, 2937, 2933, 2935]
ch0 : [2613, 2641, 2305, 2553, 2623, 2626, 2642, 2597, 2615, 2648]
ch1 : [3192, 3188, 3194, 3183, 3196, 3193, 3190, 3189, 3187, 3194]
ch2 : [1334, 1317, 1322, 1336, 1338, 1333, 1331, 1323, 1317, 1314]
ch3 : [2935, 2935, 2934, 2944, 2940, 2937, 2932, 2932, 2934, 2937]
ch0 : [2641, 2495, 2631, 2633, 2639, 2639, 2597, 2547, 2643, 2322]
ch1 : [3189, 3192, 3194, 3191, 3183, 3178, 3192, 3189, 3190, 3191]
ch2 : [1310, 1326, 1331, 1325, 1326, 1325, 1321, 1325, 1306, 1303]
ch3 : [2931, 2938, 2939, 2935, 2935, 2935, 2937, 2949, 2934, 2938]
ch0 : [2529, 2625, 2635, 2637, 2594, 2608, 2642, 2644, 2486, 2610]
ch1 : [3182, 3190, 3191, 3193, 3194, 3187, 3186, 3192, 3191, 3193]
ch2 : [1332, 1327, 1330, 1321, 1315, 1319, 1313, 1306, 1323, 1328]
ch3 : [2941, 2936, 2939, 2935, 2935, 2935, 2938, 2940, 2939, 2940]
ch0 : [2631, 2633, 2636, 2590, 2559, 2646, 2399, 2525, 2623, 2629]
ch1 : [3190, 3190, 3193, 3192, 3186, 3193, 3196, 3187, 3193, 3193]
ch2 : [1329, 1322, 1307, 1324, 1343, 1311, 1313, 1330, 1331, 1332]
ch3 : [2935, 2940, 2931, 2938, 2939, 2935, 2938, 2944, 2943, 2941]
ch0 : [2637, 2596, 2620, 2646, 2628, 2476, 2606, 2633, 2632, 2621]
ch1 : [3191, 3192, 3191, 3192, 3189, 3191, 3195, 3194, 3191, 3192]
ch2 : [1327, 1327, 1332, 1325, 1310, 1331, 1341, 1335, 1333, 1334]
ch3 : [2939, 2927, 2938, 2938, 2938, 2944, 2938, 2942, 2941, 2939]
ch0 : [2598, 2551, 2646, 2484, 2516, 2609, 2632, 2634, 2619, 2618]
ch1 : [3186, 3192, 3193, 3193, 3187, 3189, 3194, 3191, 3192, 3198]
ch2 : [1334, 1334, 1318, 1325, 1345, 1346, 1334, 1335, 1342, 1341]
ch3 : [2940, 2938, 2937, 2940, 2937, 2950, 2940, 2938, 2938, 2939]
ch0 : [2638, 2630, 2460, 2595, 2623, 2631, 2628, 2600, 2556, 2643]
ch1 : [3195, 3190, 3191, 3204, 3192, 3195, 3187, 3190, 3192, 3193]
ch2 : [1336, 1330, 1342, 1352, 1345, 1348, 1344, 1344, 1329, 1328]
ch3 : [2937, 2947, 2946, 2944, 2942, 2943, 2935, 2941, 2943, 2940]
ch0 : [2557, 2499, 2593, 2627, 2639, 2609, 2622, 2639, 2635, 2439]
ch1 : [3189, 3189, 3190, 3190, 3191, 3191, 3202, 3191, 3190, 3191]
ch2 : [1324, 1351, 1357, 1354, 1353, 1349, 1354, 1352, 1349, 1348]
ch3 : [2939, 2943, 2943, 2942, 2943, 2945, 2941, 2942, 2941, 2943]
ch0 : [2591, 2629, 2636, 2633, 2591, 2563, 2642, 2615, 2489, 2606]
ch1 : [3191, 3189, 3191, 3192, 3194, 3191, 3191, 3194, 3193, 3195]
ch2 : [1365, 1355, 1362, 1363, 1368, 1368, 1356, 1351, 1371, 1377]
ch3 : [2945, 2938, 2942, 2941, 2942, 2943, 2940, 2940, 2944, 2945]
ch0 : [2627, 2634, 2617, 2613, 2642, 2641, 2434, 2596, 2622, 2624]
ch1 : [3193, 3193, 3187, 3176, 3189, 3185, 3190, 3190, 3191, 3193]
ch2 : [1375, 1374, 1372, 1372, 1370, 1360, 1366, 1381, 1385, 1379]
ch3 : [2943, 2939, 2939, 2941, 2943, 2940, 2944, 2943, 2943, 2941]
ch0 : [2628, 2600, 2576, 2642, 2639, 2489, 2611, 2624, 2644, 2610]
ch1 : [3196, 3189, 3194, 3192, 3192, 3191, 3188, 3189, 3193, 3190]
ch2 : [1377, 1377, 1375, 1368, 1364, 1383, 1389, 1383, 1383, 1383]
ch3 : [2941, 2939, 2942, 2943, 2941, 2938, 2943, 2941, 2940, 2942]
ch0 : [2606, 2642, 2642, 2415, 2585, 2634, 2604, 2638, 2590, 2572]
ch1 : [3190, 3199, 3192, 3186, 3189, 3194, 3191, 3191, 3193, 3194]
ch2 : [1384, 1381, 1366, 1387, 1387, 1394, 1389, 1388, 1387, 1388]
ch3 : [2943, 2934, 2932, 2947, 2943, 2946, 2944, 2943, 2940, 2946]
ch0 : [2644, 2634, 2464, 2607, 2624, 2639, 2622, 2599, 2637, 2642]
ch1 : [3190, 3183, 3194, 3192, 3193, 3190, 3190, 3195, 3186, 3195]
ch2 : [1378, 1369, 1395, 1395, 1393, 1377, 1389, 1386, 1390, 1380]
ch3 : [2942, 2940, 2946, 2943, 2944, 2942, 2941, 2940, 2942, 2945]
ch0 : [2399, 2580, 2621, 2622, 2634, 2596, 2585, 2636, 2646, 2444]
ch1 : [3192, 3193, 3189, 3193, 3194, 3191, 3194, 3193, 3183, 3196]
ch2 : [1383, 1400, 1394, 1397, 1395, 1396, 1396, 1386, 1377, 1398]
ch3 : [2944, 2949, 2943, 2931, 2942, 2941, 2943, 2941, 2943, 2943]
ch0 : [2602, 2629, 2635, 2628, 2602, 2631, 2642, 2420, 2580, 2624]
ch1 : [3190, 3188, 3191, 3195, 3191, 3190, 3191, 3195, 3191, 3195]
ch2 : [1408, 1402, 1403, 1398, 1401, 1405, 1389, 1391, 1400, 1406]
ch3 : [2946, 2942, 2943, 2941, 2937, 2943, 2943, 2943, 2948, 2945]
ch0 : [2611, 2635, 2623, 2579, 2644, 2593, 2450, 2603, 2627, 2634]
ch1 : [3188, 3191, 3193, 3195, 3189, 3194, 3197, 3190, 3189, 3191]
ch2 : [1406, 1404, 1402, 1407, 1387, 1389, 1406, 1414, 1416, 1409]
ch3 : [2931, 2940, 2939, 2942, 2942, 2943, 2945, 2948, 2946, 2947]
ch0 : [2635, 2591, 2632, 2629, 2484, 2566, 2623, 2614, 2634, 2596]
ch1 : [3201, 3190, 3191, 3186, 3190, 3192, 3196, 3193, 3194, 3192]
ch2 : [1410, 1403, 1406, 1402, 1399, 1412, 1411, 1411, 1408, 1407]
ch3 : [2939, 2942, 2943, 2942, 2945, 2949, 2948, 2945, 2943, 2939]
ch0 : [2600, 2644, 2582, 2424, 2588, 2623, 2633, 2635, 2584, 2604]
ch1 : [3194, 3186, 3193, 3191, 3193, 3192, 3194, 3191, 3188, 3195]
ch2 : [1406, 1404, 1394, 1407, 1413, 1420, 1407, 1402, 1407, 1399]
ch3 : [2946, 2945, 2941, 2941, 2948, 2948, 2945, 2941, 2939, 2945]
ch0 : [2639, 2561, 2554, 2618, 2606, 2629, 2595, 2588, 2625, 2650]
ch1 : [3192, 3191, 3192, 3190, 3187, 3191, 3187, 3191, 3195, 3191]
ch2 : [1396, 1395, 1411, 1414, 1410, 1409, 1404, 1410, 1403, 1389]
ch3 : [2944, 2946, 2942, 2951, 2945, 2943, 2946, 2943, 2943, 2943]
ch0 : [2612, 2609, 2628, 2599, 2612, 2640, 2636, 2402, 2571, 2618]
ch1 : [3189, 3188, 3194, 3193, 3191, 3192, 3192, 3193, 3196, 3193]
ch2 : [1424, 1410, 1410, 1407, 1411, 1405, 1394, 1402, 1415, 1415]
ch3 : [2949, 2944, 2946, 2943, 2943, 2945, 2942, 2945, 2948, 2945]
ch0 : [2635, 2623, 2588, 2589, 2638, 2598, 2553, 2631, 2620, 2631]
ch1 : [3190, 3192, 3191, 3193, 3193, 3181, 3191, 3192, 3191, 3190]
ch2 : [1412, 1411, 1407, 1412, 1387, 1400, 1418, 1412, 1419, 1426]
ch3 : [2957, 2942, 2948, 2943, 2943, 2943, 2947, 2946, 2946, 2943]
ch0 : [2611, 2619, 2623, 2629, 2381, 2574, 2612, 2626, 2630, 2611]
ch1 : [3190, 3192, 3187, 3193, 3192, 3192, 3190, 3191, 3187, 3188]
ch2 : [1411, 1412, 1407, 1395, 1409, 1414, 1418, 1430, 1407, 1416]
ch3 : [2943, 2947, 2947, 2946, 2947, 2943, 2943, 2952, 2943, 2943]
ch0 : [2591, 2641, 2632, 2536, 2623, 2620, 2625, 2631, 2608, 2638]
ch1 : [3192, 3191, 3190, 3194, 3191, 3191, 3195, 3191, 3188, 3191]
ch2 : [1414, 1400, 1400, 1416, 1421, 1419, 1416, 1416, 1417, 1409]
ch3 : [2946, 2945, 2948, 2948, 2947, 2945, 2946, 2943, 2939, 2949]
ch0 : [2644, 2341, 2562, 2619, 2625, 2634, 2597, 2614, 2642, 2617]
ch1 : [3193, 3193, 3192, 3186, 3187, 3201, 3191, 3196, 3193, 3193]
ch2 : [1396, 1407, 1423, 1420, 1414, 1413, 1418, 1414, 1398, 1399]
ch3 : [2941, 2945, 2944, 2946, 2950, 2941, 2935, 2948, 2945, 2944]
ch0 : [2524, 2614, 2618, 2634, 2608, 2610, 2639, 2603, 2333, 2571]
ch1 : [3176, 3194, 3190, 3191, 3192, 3192, 3193, 3195, 3193, 3193]
ch2 : [1413, 1418, 1418, 1419, 1410, 1434, 1413, 1383, 1406, 1417]
ch3 : [2948, 2946, 2946, 2943, 2944, 2943, 2945, 2945, 2942, 2947]
ch0 : [2614, 2609, 2623, 2604, 2602, 2638, 2626, 2539, 2620, 2621]
ch1 : [3194, 3190, 3190, 3191, 3193, 3195, 3191, 3192, 3190, 3193]
ch2 : [1413, 1421, 1414, 1417, 1413, 1403, 1403, 1412, 1424, 1418]
ch3 : [2948, 2946, 2933, 2942, 2943, 2942, 2946, 2944, 2947, 2945]
ch0 : [2630, 2627, 2579, 2634, 2630, 2324, 2561, 2619, 2618, 2630]
ch1 : [3180, 3182, 3192, 3194, 3193, 3197, 3191, 3190, 3188, 3189]
ch2 : [1417, 1416, 1414, 1418, 1399, 1406, 1420, 1420, 1421, 1415]
ch3 : [2947, 2944, 2945, 2943, 2942, 2946, 2948, 2948, 2946, 2943]
ch0 : [2604, 2606, 2642, 2628, 2505, 2611, 2623, 2634, 2628, 2585]
ch1 : [3192, 3194, 3183, 3191, 3195, 3190, 3189, 3191, 3205, 3195]
ch2 : [1428, 1414, 1403, 1402, 1416, 1421, 1414, 1421, 1415, 1416]
ch3 : [2943, 2944, 2943, 2944, 2937, 2946, 2942, 2944, 2944, 2944]
ch0 : [2581, 2635, 2312, 2539, 2616, 2628, 2633, 2612, 2606, 2643]
ch1 : [3192, 3191, 3190, 3191, 3188, 3190, 3193, 3195, 3191, 3192]
ch2 : [1421, 1398, 1403, 1424, 1424, 1419, 1415, 1414, 1416, 1407]
ch3 : [2939, 2941, 2953, 2949, 2952, 2948, 2939, 2954, 2953, 2943]
ch0 : [2638, 2505, 2613, 2626, 2632, 2627, 2596, 2571, 2650, 2342]
ch1 : [3190, 3196, 3192, 3196, 3193, 3189, 3194, 3196, 3193, 3197]
ch2 : [1405, 1417, 1421, 1429, 1417, 1419, 1417, 1420, 1401, 1404]
ch3 : [2955, 2952, 2949, 2946, 2944, 2943, 2945, 2946, 2941, 2943]
ch0 : [2531, 2616, 2632, 2636, 2598, 2612, 2642, 2635, 2489, 2607]
ch1 : [3191, 3192, 3187, 3190, 3196, 3193, 3193, 3192, 3195, 3190]
ch2 : [1421, 1421, 1424, 1420, 1415, 1417, 1407, 1409, 1416, 1420]
ch3 : [2946, 2947, 2946, 2940, 2943, 2941, 2941, 2944, 2949, 2946]
ch0 : [2628, 2632, 2627, 2587, 2570, 2641, 2450, 2542, 2617, 2629]
ch1 : [3192, 3192, 3195, 3190, 3192, 3189, 3196, 3190, 3190, 3185]
ch2 : [1422, 1422, 1418, 1417, 1418, 1402, 1401, 1418, 1425, 1422]
ch3 : [2946, 2940, 2953, 2936, 2946, 2942, 2942, 2949, 2948, 2943]
ch0 : [2636, 2593, 2630, 2641, 2633, 2465, 2609, 2632, 2635, 2637]
ch1 : [3191, 3190, 3194, 3194, 3189, 3192, 3192, 3190, 3196, 3193]
ch2 : [1419, 1420, 1420, 1410, 1403, 1422, 1428, 1423, 1421, 1420]
ch3 : [2943, 2946, 2943, 2943, 2951, 2948, 2947, 2944, 2949, 2945]
ch0 : [2603, 2559, 2637, 2521, 2534, 2609, 2631, 2638, 2606, 2612]
ch1 : [3190, 3189, 3190, 3191, 3200, 3187, 3190, 3191, 3187, 3187]
ch2 : [1422, 1424, 1401, 1399, 1427, 1426, 1419, 1420, 1418, 1418]
ch3 : [2944, 2944, 2945, 2942, 2949, 2948, 2943, 2943, 2937, 2945]
ch0 : [2646, 2641, 2445, 2605, 2627, 2636, 2617, 2589, 2567, 2650]
ch1 : [3190, 3191, 3191, 3193, 3198, 3192, 3192, 3204, 3194, 3188]
ch2 : [1412, 1401, 1416, 1423, 1427, 1412, 1420, 1422, 1424, 1407]
ch3 : [2942, 2939, 2947, 2946, 2946, 2947, 2945, 2944, 2944, 2941]
ch0 : [2583, 2498, 2620, 2632, 2638, 2610, 2628, 2640, 2643, 2436]
ch1 : [3191, 3193, 3194, 3200, 3190, 3191, 3194, 3190, 3186, 3198]
ch2 : [1407, 1422, 1420, 1423, 1436, 1420, 1420, 1420, 1405, 1414]
ch3 : [2943, 2946, 2947, 2952, 2939, 2937, 2943, 2942, 2941, 2949]
ch0 : [2588, 2630, 2616, 2634, 2590, 2559, 2643, 2595, 2498, 2607]
ch1 : [3193, 3191, 3191, 3193, 3189, 3192, 3195, 3193, 3191, 3198]
ch2 : [1424, 1424, 1423, 1421, 1420, 1426, 1407, 1402, 1410, 1427]
ch3 : [2952, 2944, 2946, 2942, 2945, 2932, 2943, 2937, 2947, 2944]
ch0 : [2629, 2633, 2614, 2600, 2638, 2641, 2431, 2594, 2633, 2616]
ch1 : [3191, 3195, 3192, 3193, 3193, 3191, 3192, 3186, 3191, 3195]
ch2 : [1424, 1427, 1419, 1421, 1418, 1402, 1410, 1427, 1422, 1425]
ch3 : [2948, 2942, 2944, 2943, 2942, 2943, 2948, 2947, 2947, 2945]
ch0 : [2635, 2594, 2571, 2640, 2598, 2479, 2602, 2619, 2649, 2608]
ch1 : [3193, 3191, 3192, 3193, 3186, 3195, 3190, 3190, 3190, 3188]
ch2 : [1420, 1419, 1420, 1402, 1406, 1423, 1429, 1424, 1418, 1424]
ch3 : [2945, 2946, 2944, 2941, 2927, 2945, 2943, 2948, 2939, 2943]
ch0 : [2643, 2620, 2456, 2599, 2626, 2632, 2633, 2604, 2635, 2637]
ch1 : [3185, 3196, 3189, 3193, 3193, 3196, 3191, 3194, 3191, 3193]
ch2 : [1414, 1401, 1424, 1428, 1428, 1423, 1423, 1422, 1423, 1407]
ch3 : [2943, 2943, 2947, 2948, 2946, 2949, 2941, 2951, 2946, 2943]
ch0 : [2401, 2586, 2624, 2609, 2627, 2599, 2577, 2640, 2645, 2463]
ch1 : [3189, 3202, 3189, 3193, 3193, 3196, 3193, 3191, 3190, 3191]
ch2 : [1413, 1430, 1423, 1423, 1422, 1422, 1422, 1413, 1409, 1425]
ch3 : [2943, 2947, 2940, 2948, 2942, 2934, 2947, 2945, 2943, 2947]
ch0 : [2592, 2620, 2638, 2625, 2594, 2633, 2643, 2422, 2574, 2623]
ch1 : [3193, 3191, 3187, 3190, 3191, 3190, 3191, 3193, 3193, 3192]
ch2 : [1438, 1427, 1421, 1424, 1428, 1425, 1414, 1417, 1418, 1432]
ch3 : [2937, 2943, 2946, 2941, 2943, 2942, 2947, 2951, 2952, 2948]
ch0 : [2596, 2637, 2599, 2593, 2646, 2641, 2423, 2595, 2629, 2635]
ch1 : [3191, 3192, 3179, 3193, 3192, 3192, 3188, 3192, 3190, 3188]
ch2 : [1424, 1426, 1422, 1426, 1416, 1412, 1421, 1431, 1427, 1429]
ch3 : [2942, 2947, 2947, 2943, 2941, 2943, 2942, 2943, 2943, 2934]
ch0 : [2627, 2597, 2630, 2644, 2469, 2554, 2623, 2623, 2615, 2616]
ch1 : [3191, 3193, 3193, 3193, 3192, 3190, 3190, 3190, 3194, 3187]
ch2 : [1424, 1419, 1420, 1412, 1409, 1419, 1430, 1432, 1423, 1422]
ch3 : [2948, 2943, 2944, 2943, 2946, 2950, 2942, 2946, 2953, 2947]
ch0 : [2593, 2645, 2642, 2420, 2592, 2619, 2634, 2636, 2601, 2598]
ch1 : [3193, 3189, 3193, 3194, 3191, 3198, 3186, 3192, 3191, 3197]
ch2 : [1427, 1414, 1398, 1420, 1430, 1430, 1424, 1421, 1422, 1425]
ch3 : [2945, 2945, 2943, 2949, 2945, 2935, 2946, 2944, 2935, 2943]
ch0 : [2645, 2527, 2560, 2629, 2620, 2632, 2597, 2611, 2653, 2638]
ch1 : [3188, 3201, 3191, 3193, 3190, 3202, 3196, 3191, 3193, 3192]
ch2 : [1407, 1409, 1432, 1419, 1426, 1424, 1422, 1422, 1415, 1404]
ch3 : [2944, 2943, 2947, 2948, 2948, 2947, 2953, 2937, 2949, 2945]
ch0 : [2406, 2583, 2616, 2633, 2624, 2594, 2594, 2635, 2595, 2548]
ch1 : [3194, 3193, 3191, 3191, 3189, 3186, 3190, 3188, 3186, 3202]
ch2 : [1414, 1429, 1423, 1421, 1426, 1422, 1425, 1411, 1406, 1428]
ch3 : [2943, 2948, 2939, 2945, 2943, 2943, 2943, 2946, 2945, 2949]
ch0 : [2618, 2613, 2628, 2606, 2604, 2643, 2623, 2379, 2571, 2624]
ch1 : [3194, 3194, 3191, 3200, 3193, 3190, 3189, 3193, 3193, 3190]
ch2 : [1412, 1425, 1429, 1422, 1425, 1424, 1406, 1423, 1424, 1439]
ch3 : [2947, 2944, 2944, 2945, 2945, 2942, 2941, 2945, 2947, 2946]
ch0 : [2626, 2627, 2585, 2591, 2653, 2634, 2530, 2612, 2621, 2633]
ch1 : [3190, 3187, 3196, 3189, 3195, 3193, 3193, 3194, 3190, 3190]
ch2 : [1433, 1431, 1429, 1435, 1416, 1416, 1437, 1439, 1441, 1441]
ch3 : [2941, 2935, 2942, 2943, 2936, 2947, 2947, 2949, 2946, 2945]
ch0 : [2590, 2641, 2620, 2529, 2611, 2615, 2640, 2620, 2598, 2640]
ch1 : [3191, 3187, 3191, 3193, 3192, 3188, 3191, 3187, 3190, 3198]
ch2 : [1433, 1423, 1405, 1434, 1435, 1426, 1431, 1425, 1429, 1424]
ch3 : [2942, 2947, 2945, 2945, 2950, 2945, 2939, 2946, 2943, 2943]
ch0 : [2621, 2343, 2565, 2620, 2625, 2635, 2593, 2591, 2638, 2628]
ch1 : [3192, 3194, 3193, 3200, 3191, 3191, 3195, 3188, 3190, 3189]
ch2 : [1410, 1414, 1422, 1420, 1418, 1411, 1419, 1422, 1402, 1397]
ch3 : [2946, 2931, 2948, 2949, 2947, 2938, 2935, 2943, 2942, 2942]
ch0 : [2522, 2619, 2614, 2627, 2611, 2601, 2637, 2626, 2349, 2566]
ch1 : [3186, 3189, 3192, 3189, 3189, 3189, 3192, 3194, 3194, 3190]
ch2 : [1410, 1419, 1421, 1417, 1420, 1416, 1419, 1408, 1421, 1431]
ch3 : [2942, 2944, 2945, 2955, 2945, 2943, 2941, 2940, 2942, 2939]
ch0 : [2625, 2620, 2635, 2599, 2597, 2638, 2640, 2532, 2617, 2621]
ch1 : [3196, 3190, 3192, 3187, 3195, 3193, 3193, 3193, 3195, 3191]
ch2 : [1427, 1428, 1423, 1428, 1426, 1413, 1409, 1425, 1427, 1420]
ch3 : [2944, 2945, 2943, 2945, 2941, 2944, 2944, 2947, 2942, 2943]
ch0 : [2633, 2634, 2603, 2652, 2638, 2308, 2549, 2614, 2631, 2637]
ch1 : [3199, 3188, 3194, 3186, 3193, 3197, 3193, 3196, 3190, 3186]
ch2 : [1419, 1426, 1421, 1415, 1399, 1405, 1418, 1423, 1420, 1423]
ch3 : [2944, 2939, 2935, 2957, 2938, 2943, 2946, 2954, 2943, 2939]
ch0 : [2603, 2603, 2648, 2629, 2496, 2611, 2623, 2635, 2617, 2581]
ch1 : [3192, 3196, 3193, 3193, 3196, 3194, 3189, 3191, 3190, 3194]
ch2 : [1416, 1419, 1410, 1406, 1420, 1429, 1422, 1428, 1422, 1423]
ch3 : [2949, 2952, 2946, 2943, 2945, 2943, 2942, 2943, 2935, 2945]
ch0 : [2584, 2623, 2319, 2555, 2617, 2628, 2636, 2592, 2603, 2645]
ch1 : [3196, 3194, 3194, 3194, 3193, 3195, 3191, 3196, 3193, 3191]
ch2 : [1424, 1406, 1408, 1427, 1427, 1423, 1413, 1414, 1416, 1403]
ch3 : [2948, 2939, 2945, 2948, 2945, 2943, 2943, 2953, 2944, 2941]
ch0 : [2639, 2499, 2618, 2632, 2632, 2629, 2587, 2569, 2639, 2326]
ch1 : [3192, 3192, 3191, 3193, 3194, 3191, 3192, 3194, 3187, 3192]
ch2 : [1393, 1414, 1419, 1403, 1410, 1411, 1405, 1407, 1391, 1399]
ch3 : [2930, 2946, 2943, 2943, 2945, 2943, 2939, 2943, 2942, 2935]
ch0 : [2543, 2620, 2629, 2632, 2598, 2590, 2641, 2637, 2491, 2611]
ch1 : [3193, 3191, 3191, 3187, 3195, 3196, 3192, 3195, 3186, 3186]
ch2 : [1418, 1410, 1401, 1402, 1410, 1407, 1406, 1393, 1410, 1416]
ch3 : [2943, 2942, 2942, 2935, 2938, 2940, 2939, 2933, 2948, 2942]
ch0 : [2616, 2620, 2617, 2583, 2566, 2642, 2378, 2523, 2630, 2627]
ch1 : [3194, 3193, 3191, 3200, 3193, 3191, 3190, 3187, 3191, 3195]
ch2 : [1413, 1413, 1407, 1411, 1412, 1392, 1398, 1412, 1412, 1407]
ch3 : [2940, 2942, 2935, 2939, 2943, 2940, 2935, 2945, 2947, 2952]
ch0 : [2612, 2574, 2650, 2465, 2525, 2609, 2630, 2635, 2598, 2617]
ch1 : [3192, 3192, 3196, 3191, 3189, 3191, 3181, 3191, 3195, 3190]
ch2 : [1399, 1383, 1382, 1381, 1403, 1403, 1401, 1396, 1396, 1381]
ch3 : [2942, 2937, 2934, 2942, 2940, 2935, 2942, 2938, 2937, 2938]
ch0 : [2644, 2653, 2459, 2599, 2631, 2626, 2634, 2604, 2560, 2642]
ch1 : [3192, 3180, 3194, 3173, 3193, 3190, 3187, 3191, 3192, 3194]
ch2 : [1392, 1374, 1389, 1394, 1395, 1394, 1388, 1392, 1389, 1376]
ch3 : [2939, 2934, 2943, 2955, 2936, 2954, 2938, 2939, 2943, 2938]
ch0 : [2532, 2515, 2613, 2629, 2635, 2609, 2625, 2641, 2640, 2452]
ch1 : [3188, 3192, 3192, 3189, 3189, 3189, 3191, 3189, 3190, 3192]
ch2 : [1366, 1389, 1392, 1387, 1385, 1384, 1385, 1375, 1372, 1380]
ch3 : [2936, 2941, 2944, 2944, 2940, 2936, 2940, 2938, 2934, 2942]
ch0 : [2609, 2627, 2639, 2630, 2602, 2569, 2646, 2596, 2500, 2621]
ch1 : [3191, 3197, 3192, 3193, 3195, 3195, 3192, 3182, 3193, 3193]
ch2 : [1389, 1387, 1388, 1385, 1383, 1382, 1363, 1373, 1387, 1388]
ch3 : [2944, 2940, 2941, 2940, 2940, 2939, 2938, 2937, 2941, 2927]
ch0 : [2632, 2635, 2599, 2630, 2642, 2645, 2428, 2595, 2632, 2626]
ch1 : [3189, 3186, 3186, 3190, 3191, 3193, 3196, 3192, 3188, 3190]
ch2 : [1389, 1382, 1382, 1384, 1384, 1369, 1376, 1391, 1390, 1383]
ch3 : [2942, 2944, 2935, 2940, 2938, 2938, 2940, 2939, 2941, 2942]
ch0 : [2637, 2599, 2572, 2644, 2639, 2487, 2610, 2631, 2635, 2620]
ch1 : [3192, 3201, 3201, 3192, 3205, 3191, 3192, 3193, 3185, 3191]
ch2 : [1389, 1382, 1375, 1367, 1362, 1384, 1386, 1383, 1381, 1378]
ch3 : [2938, 2943, 2939, 2937, 2937, 2935, 2945, 2939, 2937, 2937]
ch0 : [2624, 2641, 2648, 2414, 2604, 2623, 2626, 2633, 2612, 2571]
ch1 : [3192, 3189, 3193, 3201, 3193, 3193, 3192, 3194, 3191, 3193]
ch2 : [1381, 1377, 1364, 1370, 1380, 1384, 1377, 1378, 1378, 1375]
ch3 : [2944, 2925, 2936, 2941, 2941, 2935, 2941, 2939, 2936, 2940]
ch0 : [2643, 2597, 2475, 2601, 2632, 2636, 2617, 2620, 2635, 2646]
ch1 : [3192, 3193, 3194, 3185, 3193, 3194, 3192, 3192, 3187, 3187]
ch2 : [1366, 1357, 1377, 1382, 1380, 1375, 1372, 1371, 1367, 1373]
ch3 : [2938, 2937, 2938, 2941, 2941, 2938, 2936, 2924, 2940, 2938]
ch0 : [2441, 2587, 2626, 2625, 2626, 2594, 2595, 2649, 2625, 2468]
ch1 : [3194, 3192, 3192, 3193, 3193, 3192, 3187, 3189, 3183, 3191]
ch2 : [1365, 1378, 1379, 1375, 1370, 1375, 1371, 1371, 1362, 1374]
ch3 : [2944, 2941, 2942, 2941, 2935, 2938, 2946, 2938, 2937, 2934]
ch0 : [2600, 2626, 2621, 2613, 2618, 2634, 2656, 2412, 2575, 2623]
ch1 : [3192, 3190, 3194, 3186, 3205, 3190, 3187, 3191, 3179, 3192]
ch2 : [1380, 1381, 1375, 1372, 1376, 1378, 1362, 1369, 1373, 1378]
ch3 : [2942, 2945, 2937, 2937, 2936, 2940, 2937, 2940, 2940, 2941]
ch0 : [2628, 2601, 2639, 2643, 2427, 2572, 2618, 2630, 2623, 2626]
ch1 : [3197, 3189, 3193, 3189, 3190, 3195, 3190, 3194, 3187, 3190]
ch2 : [1365, 1368, 1362, 1354, 1354, 1384, 1374, 1370, 1370, 1363]
ch3 : [2935, 2937, 2942, 2939, 2942, 2939, 2943, 2939, 2942, 2942]
ch0 : [2589, 2646, 2640, 2430, 2584, 2633, 2641, 2638, 2600, 2592]
ch1 : [3192, 3194, 3189, 3193, 3196, 3196, 3191, 3192, 3193, 3192]
ch2 : [1366, 1353, 1369, 1368, 1378, 1373, 1363, 1366, 1381, 1366]
ch3 : [2940, 2939, 2940, 2940, 2945, 2943, 2938, 2937, 2937, 2948]
ch0 : [2646, 2501, 2566, 2621, 2608, 2628, 2589, 2616, 2646, 2617]
ch1 : [3190, 3196, 3192, 3196, 3190, 3200, 3191, 3190, 3190, 3191]
ch2 : [1358, 1368, 1376, 1376, 1373, 1370, 1366, 1364, 1361, 1351]
ch3 : [2939, 2941, 2943, 2956, 2935, 2941, 2936, 2943, 2939, 2944]
ch0 : [2413, 2587, 2628, 2635, 2621, 2609, 2598, 2642, 2574, 2544]
ch1 : [3191, 3192, 3194, 3195, 3194, 3195, 3192, 3192, 3190, 3191]
ch2 : [1370, 1381, 1378, 1371, 1370, 1364, 1365, 1349, 1367, 1372]
ch3 : [2943, 2944, 2942, 2943, 2937, 2926, 2935, 2939, 2942, 2939]
ch0 : [2602, 2619, 2626, 2619, 2611, 2642, 2644, 2385, 2581, 2631]
ch1 : [3191, 3194, 3194, 3191, 3190, 3179, 3193, 3204, 3191, 3194]
ch2 : [1369, 1371, 1364, 1367, 1366, 1361, 1351, 1366, 1370, 1369]
ch3 : [2942, 2941, 2940, 2939, 2943, 2940, 2941, 2938, 2939, 2943]
ch0 : [2630, 2634, 2605, 2607, 2638, 2588, 2547, 2626, 2615, 2636]
ch1 : [3189, 3194, 3191, 3192, 3190, 3190, 3194, 3200, 3196, 3187]
ch2 : [1361, 1364, 1367, 1367, 1351, 1350, 1367, 1370, 1369, 1365]
ch3 : [2946, 2938, 2935, 2936, 2940, 2945, 2945, 2943, 2948, 2939]
ch0 : [2619, 2612, 2644, 2614, 2374, 2578, 2614, 2634, 2627, 2593]
ch1 : [3189, 3192, 3190, 3194, 3193, 3192, 3190, 3193, 3190, 3193]
ch2 : [1366, 1364, 1373, 1352, 1359, 1372, 1366, 1367, 1367, 1364]
ch3 : [2942, 2942, 2939, 2927, 2942, 2942, 2948, 2942, 2951, 2940]
ch0 : [2601, 2645, 2642, 2532, 2616, 2618, 2634, 2613, 2620, 2638]
ch1 : [3193, 3190, 3193, 3194, 3195, 3191, 3188, 3187, 3193, 3196]
ch2 : [1364, 1355, 1351, 1367, 1371, 1384, 1366, 1366, 1367, 1364]
ch3 : [2942, 2944, 2941, 2943, 2945, 2942, 2940, 2941, 2941, 2952]
ch0 : [2595, 2372, 2564, 2612, 2629, 2632, 2603, 2609, 2639, 2621]
ch1 : [3192, 3192, 3196, 3187, 3191, 3191, 3196, 3193, 3196, 3191]
ch2 : [1357, 1361, 1369, 1367, 1368, 1361, 1367, 1369, 1358, 1355]
ch3 : [2939, 2946, 2943, 2946, 2945, 2941, 2941, 2941, 2952, 2942]
ch0 : [2525, 2623, 2622, 2635, 2627, 2591, 2639, 2641, 2318, 2565]
ch1 : [3191, 3194, 3191, 3187, 3191, 3188, 3193, 3191, 3194, 3194]
ch2 : [1377, 1374, 1375, 1372, 1368, 1375, 1369, 1359, 1363, 1375]
ch3 : [2948, 2943, 2942, 2943, 2938, 2939, 2942, 2942, 2943, 2948]
ch0 : [2614, 2632, 2630, 2597, 2592, 2641, 2634, 2513, 2619, 2622]
ch1 : [3191, 3190, 3193, 3190, 3191, 3190, 3196, 3193, 3194, 3193]
ch2 : [1382, 1373, 1352, 1365, 1371, 1355, 1359, 1373, 1379, 1375]
ch3 : [2944, 2943, 2940, 2944, 2943, 2940, 2951, 2945, 2942, 2943]
ch0 : [2633, 2630, 2592, 2634, 2642, 2324, 2550, 2625, 2627, 2634]
ch1 : [3190, 3186, 3194, 3191, 3189, 3191, 3190, 3191, 3193, 3193]
ch2 : [1375, 1373, 1371, 1374, 1352, 1365, 1367, 1383, 1376, 1373]
ch3 : [2942, 2942, 2943, 2938, 2935, 2941, 2948, 2947, 2944, 2940]
ch0 : [2593, 2601, 2643, 2633, 2508, 2640, 2615, 2633, 2632, 2584]
ch1 : [3191, 3190, 3193, 3190, 3192, 3202, 3189, 3191, 3187, 3194]
ch2 : [1373, 1377, 1361, 1363, 1374, 1385, 1366, 1384, 1375, 1376]
ch3 : [2941, 2945, 2942, 2943, 2945, 2942, 2943, 2945, 2942, 2942]
ch0 : [2569, 2638, 2324, 2556, 2609, 2627, 2627, 2612, 2612, 2641]
ch1 : [3193, 3190, 3193, 3202, 3191, 3181, 3189, 3194, 3186, 3187]
ch2 : [1376, 1361, 1368, 1383, 1382, 1379, 1377, 1378, 1379, 1370]
ch3 : [2944, 2943, 2941, 2933, 2948, 2949, 2942, 2946, 2943, 2949]
ch0 : [2635, 2499, 2607, 2614, 2631, 2624, 2572, 2565, 2643, 2347]
ch1 : [3192, 3192, 3189, 3183, 3184, 3197, 3192, 3192, 3194, 3190]
ch2 : [1365, 1377, 1385, 1387, 1384, 1373, 1379, 1379, 1362, 1361]
ch3 : [2935, 2945, 2945, 2941, 2941, 2945, 2943, 2944, 2939, 2943]
ch0 : [2527, 2615, 2615, 2636, 2599, 2621, 2640, 2641, 2487, 2602]
ch1 : [3192, 3189, 3189, 3195, 3190, 3192, 3190, 3194, 3191, 3190]
ch2 : [1387, 1386, 1387, 1379, 1379, 1380, 1384, 1363, 1375, 1389]
ch3 : [2946, 2949, 2943, 2949, 2943, 2941, 2943, 2947, 2943, 2946]
ch0 : [2622, 2631, 2628, 2592, 2558, 2614, 2438, 2519, 2620, 2629]
ch1 : [3191, 3190, 3193, 3196, 3193, 3187, 3191, 3187, 3179, 3192]
ch2 : [1384, 1372, 1382, 1380, 1384, 1366, 1369, 1382, 1386, 1385]
ch3 : [2945, 2948, 2944, 2941, 2948, 2943, 2942, 2949, 2946, 2948]
ch0 : [2626, 2595, 2622, 2633, 2638, 2471, 2604, 2619, 2627, 2627]
ch1 : [3189, 3191, 3191, 3193, 3193, 3190, 3192, 3190, 3191, 3191]
ch2 : [1383, 1380, 1382, 1375, 1366, 1382, 1383, 1386, 1384, 1387]
ch3 : [2943, 2943, 2946, 2943, 2945, 2952, 2949, 2947, 2943, 2943]
ch0 : [2600, 2566, 2640, 2529, 2496, 2621, 2626, 2627, 2610, 2613]
ch1 : [3188, 3189, 3194, 3193, 3196, 3191, 3192, 3187, 3189, 3195]
ch2 : [1378, 1379, 1368, 1366, 1388, 1388, 1382, 1384, 1378, 1386]
ch3 : [2944, 2946, 2943, 2939, 2948, 2947, 2944, 2945, 2943, 2949]
ch0 : [2643, 2639, 2454, 2594, 2614, 2627, 2630, 2601, 2564, 2642]
ch1 : [3181, 3192, 3186, 3193, 3190, 3192, 3188, 3192, 3193, 3187]
ch2 : [1381, 1370, 1388, 1386, 1392, 1387, 1386, 1383, 1389, 1372]
ch3 : [2941, 2945, 2947, 2945, 2948, 2945, 2947, 2943, 2947, 2929]
ch0 : [2602, 2629, 2625, 2632, 2608, 2551, 2640, 2638, 2492, 2602]
ch1 : [3191, 3191, 3193, 3195, 3189, 3187, 3193, 3193, 3191, 3194]
ch2 : [1393, 1386, 1395, 1399, 1391, 1387, 1375, 1376, 1395, 1396]
ch3 : [2947, 2949, 2944, 2948, 2943, 2941, 2943, 2943, 2947, 2957]
ch0 : [2625, 2635, 2617, 2607, 2642, 2640, 2433, 2586, 2631, 2615]
ch1 : [3186, 3196, 3190, 3192, 3201, 3193, 3193, 3192, 3191, 3195]
ch2 : [1388, 1389, 1388, 1389, 1386, 1376, 1383, 1390, 1395, 1381]
ch3 : [2948, 2942, 2942, 2943, 2943, 2946, 2947, 2945, 2949, 2950]
ch0 : [2630, 2603, 2575, 2643, 2611, 2487, 2609, 2629, 2637, 2601]
ch1 : [3190, 3194, 3192, 3193, 3199, 3192, 3193, 3194, 3194, 3189]
ch2 : [1390, 1390, 1391, 1379, 1377, 1396, 1398, 1395, 1391, 1395]
ch3 : [2946, 2949, 2943, 2949, 2944, 2948, 2948, 2946, 2943, 2942]
ch0 : [2612, 2643, 2642, 2417, 2606, 2636, 2619, 2629, 2599, 2579]
ch1 : [3194, 3190, 3191, 3193, 3194, 3192, 3191, 3195, 3191, 3189]
ch2 : [1392, 1386, 1381, 1384, 1395, 1409, 1399, 1393, 1393, 1397]
ch3 : [2944, 2946, 2947, 2948, 2948, 2947, 2946, 2948, 2934, 2946]
ch0 : [2642, 2632, 2472, 2589, 2625, 2634, 2628, 2602, 2638, 2637]
ch1 : [3187, 3196, 3192, 3203, 3190, 3193, 3196, 3191, 3193, 3192]
ch2 : [1387, 1375, 1395, 1395, 1401, 1385, 1393, 1394, 1394, 1380]
ch3 : [2950, 2945, 2945, 2948, 2939, 2947, 2943, 2945, 2943, 2945]
ch0 : [2408, 2587, 2630, 2604, 2631, 2607, 2566, 2642, 2616, 2448]
ch1 : [3196, 3192, 3192, 3189, 3192, 3191, 3192, 3202, 3191, 3196]
ch2 : [1384, 1400, 1397, 1397, 1394, 1395, 1391, 1389, 1376, 1395]
ch3 : [2949, 2948, 2949, 2946, 2943, 2939, 2942, 2944, 2945, 2947]
ch0 : [2600, 2630, 2636, 2630, 2601, 2623, 2646, 2431, 2566, 2619]
ch1 : [3191, 3192, 3198, 3189, 3205, 3196, 3196, 3190, 3191, 3187]
ch2 : [1395, 1401, 1393, 1393, 1391, 1392, 1380, 1385, 1394, 1400]
ch3 : [2949, 2949, 2944, 2943, 2943, 2948, 2945, 2948, 2946, 2946]
ch0 : [2620, 2635, 2615, 2603, 2644, 2613, 2434, 2591, 2647, 2638]
ch1 : [3188, 3191, 3190, 3191, 3191, 3191, 3191, 3193, 3190, 3189]
ch2 : [1396, 1394, 1395, 1397, 1388, 1381, 1400, 1403, 1403, 1394]
ch3 : [2935, 2946, 2945, 2945, 2947, 2943, 2947, 2949, 2946, 2946]
ch0 : [2621, 2599, 2621, 2644, 2482, 2564, 2625, 2618, 2648, 2612]
ch1 : [3191, 3189, 3190, 3193, 3192, 3188, 3190, 3192, 3190, 3191]
ch2 : [1396, 1407, 1399, 1383, 1390, 1406, 1409, 1397, 1405, 1396]
ch3 : [2943, 2941, 2946, 2952, 2945, 2948, 2947, 2946, 2946, 2949]
ch0 : [2613, 2646, 2656, 2423, 2595, 2631, 2636, 2625, 2583, 2607]
ch1 : [3192, 3189, 3192, 3189, 3192, 3200, 3189, 3191, 3192, 3190]
ch2 : [1403, 1390, 1378, 1400, 1403, 1406, 1401, 1409, 1394, 1405]
ch3 : [2950, 2944, 2948, 2947, 2949, 2949, 2942, 2943, 2942, 2943]
ch0 : [2639, 2542, 2556, 2623, 2618, 2629, 2616, 2604, 2640, 2642]
ch1 : [3189, 3191, 3189, 3191, 3190, 3187, 3187, 3193, 3190, 3179]
ch2 : [1403, 1388, 1400, 1405, 1403, 1405, 1400, 1402, 1398, 1384]
ch3 : [2948, 2950, 2946, 2952, 2948, 2946, 2944, 2944, 2949, 2941]
ch0 : [2407, 2595, 2629, 2631, 2637, 2597, 2595, 2640, 2613, 2548]
ch1 : [3188, 3191, 3189, 3192, 3192, 3186, 3203, 3190, 3203, 3193]
ch2 : [1399, 1406, 1407, 1399, 1402, 1399, 1403, 1393, 1390, 1404]
ch3 : [2945, 2949, 2955, 2946, 2943, 2947, 2943, 2948, 2945, 2949]
ch0 : [2615, 2623, 2631, 2594, 2621, 2645, 2640, 2388, 2571, 2621]
ch1 : [3200, 3188, 3201, 3188, 3189, 3192, 3200, 3187, 3193, 3199]
ch2 : [1407, 1405, 1402, 1400, 1401, 1399, 1388, 1398, 1413, 1410]
ch3 : [2948, 2947, 2947, 2942, 2945, 2948, 2949, 2944, 2949, 2953]
ch0 : [2635, 2637, 2615, 2616, 2645, 2613, 2533, 2633, 2631, 2630]
ch1 : [3190, 3191, 3193, 3193, 3187, 3191, 3190, 3196, 3191, 3192]
ch2 : [1405, 1388, 1398, 1404, 1391, 1387, 1405, 1411, 1407, 1407]
ch3 : [2952, 2948, 2942, 2935, 2947, 2954, 2948, 2949, 2947, 2945]
ch0 : [2627, 2621, 2647, 2629, 2374, 2571, 2626, 2636, 2634, 2596]
ch1 : [3186, 3189, 3187, 3190, 3195, 3190, 3187, 3187, 3192, 3189]
ch2 : [1406, 1406, 1403, 1393, 1401, 1415, 1411, 1412, 1418, 1410]
ch3 : [2943, 2946, 2944, 2946, 2948, 2950, 2953, 2954, 2946, 2946]
ch0 : [2600, 2644, 2605, 2547, 2618, 2613, 2639, 2619, 2611, 2643]
ch1 : [3195, 3193, 3193, 3193, 3193, 3191, 3189, 3192, 3191, 3190]
ch2 : [1407, 1395, 1395, 1411, 1415, 1413, 1415, 1405, 1410, 1414]
ch3 : [2953, 2945, 2949, 2952, 2948, 2946, 2937, 2946, 2942, 2947]
ch0 : [2631, 2357, 2567, 2623, 2627, 2636, 2602, 2592, 2647, 2643]
ch1 : [3190, 3194, 3192, 3196, 3192, 3192, 3192, 3194, 3190, 3189]
ch2 : [1395, 1410, 1416, 1422, 1420, 1413, 1417, 1414, 1405, 1395]
ch3 : [2942, 2943, 2953, 2946, 2949, 2939, 2943, 2949, 2942, 2946]
ch0 : [2528, 2629, 2624, 2627, 2626, 2610, 2639, 2614, 2328, 2564]
ch1 : [3197, 3187, 3193, 3190, 3181, 3190, 3183, 3188, 3193, 3193]
ch2 : [1414, 1416, 1415, 1418, 1414, 1415, 1415, 1400, 1403, 1417]
ch3 : [2948, 2946, 2945, 2948, 2945, 2949, 2952, 2942, 2945, 2952]
ch0 : [2621, 2624, 2638, 2599, 2600, 2642, 2628, 2510, 2617, 2615]
ch1 : [3192, 3195, 3189, 3204, 3193, 3193, 3192, 3190, 3193, 3194]
ch2 : [1421, 1414, 1406, 1411, 1407, 1399, 1403, 1415, 1418, 1417]
ch3 : [2943, 2947, 2945, 2945, 2944, 2944, 2947, 2946, 2943, 2948]
ch0 : [2631, 2626, 2585, 2609, 2644, 2318, 2538, 2622, 2628, 2636]
ch1 : [3188, 3193, 3193, 3194, 3191, 3197, 3188, 3201, 3183, 3195]
ch2 : [1409, 1412, 1411, 1411, 1393, 1402, 1417, 1423, 1419, 1417]
ch3 : [2948, 2948, 2946, 2949, 2944, 2943, 2950, 2951, 2949, 2949]
ch0 : [2562, 2641, 2335, 2536, 2609, 2622, 2631, 2590, 2597, 2640]
ch1 : [3194, 3193, 3194, 3195, 3190, 3194, 3192, 3193, 3193, 3192]
ch2 : [1415, 1402, 1405, 1419, 1420, 1418, 1414, 1414, 1418, 1406]
ch3 : [2950, 2943, 2947, 2950, 2949, 2941, 2943, 2948, 2945, 2932]
ch0 : [2600, 2480, 2618, 2618, 2632, 2621, 2581, 2559, 2629, 2357]
ch1 : [3205, 3197, 3190, 3202, 3189, 3193, 3191, 3192, 3189, 3193]
ch2 : [1397, 1414, 1421, 1416, 1421, 1422, 1417, 1416, 1399, 1404]
ch3 : [2943, 2949, 2952, 2946, 2946, 2944, 2947, 2948, 2944, 2952]
ch0 : [2521, 2612, 2628, 2635, 2604, 2597, 2640, 2641, 2466, 2590]
ch1 : [3196, 3190, 3192, 3191, 3192, 3191, 3192, 3189, 3192, 3190]
ch2 : [1427, 1427, 1419, 1420, 1417, 1420, 1413, 1409, 1421, 1426]
ch3 : [2949, 2948, 2953, 2945, 2944, 2945, 2948, 2949, 2953, 2948]
ch0 : [2621, 2625, 2621, 2579, 2551, 2638, 2431, 2502, 2607, 2619]
ch1 : [3190, 3191, 3187, 3190, 3193, 3186, 3195, 3190, 3193, 3192]
ch2 : [1426, 1428, 1428, 1419, 1425, 1410, 1409, 1433, 1430, 1430]
ch3 : [2945, 2949, 2945, 2948, 2957, 2960, 2943, 2951, 2948, 2950]
ch0 : [2626, 2595, 2610, 2631, 2631, 2440, 2601, 2618, 2625, 2629]
ch1 : [3190, 3190, 3189, 3191, 3196, 3193, 3190, 3192, 3194, 3193]
ch2 : [1426, 1423, 1423, 1417, 1415, 1419, 1435, 1428, 1430, 1430]
ch3 : [2946, 2939, 2948, 2945, 2947, 2943, 2949, 2949, 2945, 2945]
ch0 : [2609, 2545, 2638, 2518, 2503, 2612, 2628, 2630, 2602, 2605]
ch1 : [3192, 3193, 3193, 3192, 3190, 3191, 3192, 3198, 3195, 3191]
ch2 : [1426, 1429, 1412, 1405, 1432, 1434, 1430, 1426, 1427, 1429]
ch3 : [2941, 2945, 2942, 2942, 2947, 2953, 2949, 2943, 2942, 2943]
ch0 : [2630, 2634, 2448, 2583, 2606, 2626, 2632, 2591, 2552, 2635]
ch1 : [3187, 3189, 3196, 3188, 3192, 3194, 3193, 3192, 3191, 3194]
ch2 : [1424, 1410, 1421, 1435, 1426, 1431, 1431, 1432, 1431, 1421]
ch3 : [2949, 2948, 2943, 2939, 2946, 2942, 2945, 2943, 2949, 2943]
ch0 : [2625, 2478, 2609, 2621, 2623, 2618, 2611, 2637, 2637, 2415]
ch1 : [3193, 3190, 3191, 3202, 3190, 3186, 3193, 3192, 3196, 3196]
ch2 : [1415, 1434, 1441, 1440, 1442, 1437, 1443, 1433, 1421, 1428]
ch3 : [2942, 2950, 2949, 2945, 2950, 2952, 2942, 2944, 2954, 2947]
ch0 : [2600, 2622, 2610, 2623, 2576, 2569, 2637, 2621, 2469, 2602]
ch1 : [3195, 3183, 3190, 3187, 3194, 3193, 3193, 3193, 3196, 3192]
ch2 : [1439, 1437, 1433, 1434, 1432, 1435, 1411, 1408, 1427, 1435]
ch3 : [2947, 2945, 2945, 2943, 2940, 2942, 2943, 2942, 2947, 2949]
ch0 : [2622, 2629, 2613, 2594, 2640, 2630, 2412, 2583, 2615, 2606]
ch1 : [3189, 3190, 3189, 3193, 3189, 3191, 3194, 3187, 3203, 3190]
ch2 : [1428, 1420, 1421, 1421, 1420, 1407, 1411, 1422, 1420, 1422]
ch3 : [2945, 2942, 2933, 2943, 2940, 2943, 2956, 2952, 2940, 2948]
ch0 : [2597, 2636, 2614, 2416, 2557, 2623, 2621, 2628, 2603, 2578]
ch1 : [3192, 3200, 3191, 3196, 3191, 3190, 3194, 3188, 3193, 3193]
ch2 : [1416, 1418, 1405, 1413, 1430, 1427, 1431, 1429, 1422, 1421]
ch3 : [2943, 2941, 2943, 2941, 2939, 2938, 2950, 2941, 2940, 2940]
ch0 : [2655, 2623, 2454, 2581, 2626, 2634, 2622, 2596, 2632, 2637]
ch1 : [3189, 3191, 3192, 3194, 3191, 3190, 3188, 3192, 3190, 3189]
ch2 : [1409, 1404, 1420, 1429, 1423, 1421, 1425, 1417, 1420, 1401]
ch3 : [2940, 2935, 2939, 2943, 2935, 2940, 2942, 2934, 2938, 2943]
ch0 : [2422, 2563, 2622, 2613, 2630, 2593, 2595, 2644, 2608, 2431]
ch1 : [3189, 3190, 3187, 3196, 3194, 3191, 3189, 3193, 3191, 3191]
ch2 : [1404, 1421, 1418, 1416, 1411, 1410, 1411, 1396, 1390, 1395]
ch3 : [2935, 2935, 2950, 2937, 2935, 2939, 2937, 2935, 2943, 2937]
ch0 : [2590, 2613, 2632, 2625, 2596, 2622, 2638, 2478, 2567, 2607]
ch1 : [3192, 3191, 3190, 3193, 3183, 3191, 3184, 3196, 3196, 3195]
ch2 : [1413, 1410, 1405, 1405, 1403, 1404, 1390, 1391, 1413, 1409]
ch3 : [2940, 2937, 2935, 2932, 2934, 2937, 2934, 2937, 2938, 2938]
ch0 : [2609, 2626, 2597, 2591, 2641, 2576, 2410, 2581, 2620, 2631]
ch1 : [3194, 3194, 3191, 3191, 3194, 3195, 3190, 3195, 3193, 3192]
ch2 : [1405, 1399, 1398, 1401, 1396, 1384, 1404, 1411, 1390, 1405]
ch3 : [2936, 2934, 2936, 2935, 2937, 2941, 2937, 2938, 2940, 2937]
ch0 : [2608, 2588, 2601, 2638, 2585, 2532, 2613, 2620, 2628, 2597]
ch1 : [3192, 3191, 3187, 3192, 3191, 3192, 3193, 3193, 3195, 3191]
ch2 : [1400, 1393, 1403, 1381, 1387, 1399, 1401, 1397, 1382, 1392]
ch3 : [2933, 2935, 2927, 2931, 2935, 2937, 2937, 2936, 2934, 2934]
ch0 : [2616, 2639, 2634, 2395, 2565, 2626, 2636, 2606, 2573, 2579]
ch1 : [3192, 3188, 3189, 3192, 3190, 3186, 3191, 3187, 3196, 3187]
ch2 : [1383, 1385, 1377, 1390, 1402, 1396, 1397, 1386, 1387, 1387]
ch3 : [2937, 2936, 2934, 2933, 2940, 2935, 2938, 2934, 2936, 2949]
ch0 : [2637, 2577, 2537, 2622, 2612, 2629, 2624, 2610, 2636, 2641]
ch1 : [3191, 3191, 3188, 3193, 3191, 3191, 3192, 3190, 3191, 3193]
ch2 : [1375, 1372, 1389, 1393, 1387, 1386, 1381, 1388, 1375, 1361]
ch3 : [2933, 2938, 2941, 2936, 2936, 2936, 2934, 2935, 2935, 2936]
ch0 : [2374, 2569, 2622, 2619, 2619, 2597, 2586, 2638, 2625, 2523]
ch1 : [3194, 3189, 3193, 3190, 3195, 3187, 3195, 3185, 3193, 3194]
ch2 : [1380, 1386, 1385, 1396, 1383, 1386, 1382, 1367, 1364, 1382]
ch3 : [2940, 2939, 2934, 2937, 2935, 2940, 2934, 2936, 2937, 2940]
ch0 : [2621, 2611, 2629, 2611, 2607, 2643, 2630, 2354, 2562, 2628]
ch1 : [3190, 3190, 3191, 3194, 3205, 3191, 3188, 3195, 3190, 3193]
ch2 : [1385, 1384, 1378, 1379, 1379, 1375, 1356, 1375, 1385, 1380]
ch3 : [2939, 2937, 2937, 2938, 2936, 2934, 2937, 2934, 2942, 2937]
ch0 : [2620, 2592, 2638, 2629, 2356, 2557, 2613, 2624, 2631, 2593]
ch1 : [3190, 3194, 3196, 3191, 3197, 3190, 3189, 3191, 3192, 3193]
ch2 : [1376, 1374, 1369, 1358, 1374, 1376, 1381, 1374, 1369, 1372]
ch3 : [2941, 2939, 2939, 2937, 2939, 2941, 2939, 2941, 2938, 2937]
ch0 : [2595, 2643, 2636, 2510, 2611, 2623, 2628, 2615, 2589, 2637]
ch1 : [3191, 3191, 3188, 3192, 3189, 3192, 3192, 3189, 3189, 3191]
ch2 : [1372, 1362, 1352, 1370, 1373, 1375, 1369, 1369, 1365, 1367]
ch3 : [2939, 2941, 2936, 2939, 2939, 2941, 2939, 2940, 2937, 2940]
ch0 : [2642, 2319, 2555, 2614, 2611, 2624, 2608, 2600, 2642, 2614]
ch1 : [3191, 3207, 3193, 3190, 3178, 3190, 3190, 3196, 3191, 3187]
ch2 : [1352, 1358, 1372, 1373, 1371, 1362, 1358, 1365, 1350, 1347]
ch3 : [2940, 2939, 2941, 2944, 2942, 2935, 2935, 2937, 2942, 2939]
ch0 : [2510, 2614, 2607, 2627, 2618, 2583, 2598, 2652, 2298, 2544]
ch1 : [3190, 3191, 3201, 3194, 3190, 3189, 3191, 3193, 3197, 3192]
ch2 : [1362, 1368, 1366, 1364, 1361, 1356, 1366, 1345, 1355, 1369]
ch3 : [2943, 2942, 2943, 2942, 2938, 2941, 2939, 2940, 2941, 2947]
ch0 : [2624, 2630, 2636, 2588, 2606, 2634, 2638, 2484, 2601, 2619]
ch1 : [3190, 3195, 3176, 3192, 3190, 3189, 3193, 3200, 3189, 3193]
ch2 : [1370, 1366, 1362, 1364, 1365, 1352, 1353, 1365, 1369, 1363]
ch3 : [2943, 2943, 2941, 2938, 2937, 2937, 2942, 2944, 2947, 2942]
ch0 : [2629, 2624, 2574, 2556, 2625, 2310, 2539, 2607, 2624, 2632]
ch1 : [3191, 3190, 3190, 3188, 3193, 3193, 3208, 3195, 3192, 3190]
ch2 : [1362, 1366, 1363, 1361, 1354, 1353, 1371, 1372, 1361, 1368]
ch3 : [2941, 2942, 2935, 2943, 2938, 2940, 2940, 2942, 2942, 2940]
ch0 : [2596, 2609, 2638, 2638, 2490, 2613, 2609, 2623, 2623, 2580]
ch1 : [3188, 3190, 3191, 3193, 3201, 3191, 3191, 3190, 3192, 3189]
ch2 : [1367, 1364, 1357, 1353, 1366, 1373, 1372, 1368, 1370, 1370]
ch3 : [2939, 2939, 2940, 2942, 2946, 2945, 2939, 2942, 2943, 2943]
ch0 : [2565, 2634, 2381, 2507, 2606, 2622, 2633, 2594, 2611, 2640]
ch1 : [3196, 3192, 3191, 3188, 3196, 3190, 3196, 3193, 3190, 3190]
ch2 : [1374, 1360, 1356, 1382, 1381, 1371, 1373, 1372, 1374, 1362]
ch3 : [2943, 2940, 2940, 2943, 2945, 2942, 2941, 2939, 2934, 2943]
ch0 : [2637, 2468, 2603, 2621, 2632, 2627, 2592, 2561, 2654, 2470]
ch1 : [3188, 3194, 3187, 3194, 3191, 3192, 3193, 3196, 3193, 3195]
ch2 : [1362, 1373, 1378, 1379, 1372, 1392, 1374, 1375, 1359, 1357]
ch3 : [2943, 2945, 2939, 2940, 2942, 2939, 2942, 2949, 2941, 2940]
ch0 : [2516, 2610, 2622, 2629, 2603, 2612, 2638, 2616, 2457, 2598]
ch1 : [3193, 3194, 3193, 3193, 3190, 3190, 3193, 3190, 3187, 3193]
ch2 : [1383, 1381, 1378, 1375, 1374, 1378, 1370, 1362, 1373, 1389]
ch3 : [2935, 2951, 2946, 2941, 2938, 2944, 2940, 2940, 2951, 2943]
ch0 : [2622, 2631, 2632, 2589, 2562, 2639, 2531, 2491, 2605, 2626]
ch1 : [3180, 3189, 3194, 3188, 3196, 3188, 3187, 3192, 3191, 3189]
ch2 : [1381, 1379, 1376, 1377, 1380, 1358, 1359, 1382, 1388, 1383]
ch3 : [2943, 2942, 2942, 2941, 2942, 2940, 2940, 2946, 2945, 2944]
ch0 : [2631, 2609, 2622, 2638, 2644, 2438, 2590, 2619, 2626, 2615]
ch1 : [3195, 3185, 3189, 3177, 3190, 3191, 3203, 3192, 3186, 3204]
ch2 : [1397, 1378, 1379, 1375, 1366, 1374, 1386, 1387, 1383, 1387]
ch3 : [2943, 2942, 2938, 2940, 2935, 2949, 2942, 2957, 2949, 2942]
ch0 : [2594, 2562, 2638, 2579, 2489, 2603, 2609, 2632, 2607, 2608]
ch1 : [3190, 3194, 3196, 3191, 3192, 3189, 3189, 3192, 3189, 3189]
ch2 : [1383, 1382, 1368, 1364, 1387, 1387, 1389, 1387, 1385, 1385]
ch3 : [2941, 2945, 2944, 2942, 2945, 2945, 2941, 2942, 2944, 2943]
ch0 : [2616, 2647, 2424, 2585, 2614, 2615, 2631, 2605, 2560, 2639]
ch1 : [3191, 3194, 3188, 3192, 3187, 3193, 3189, 3191, 3190, 3188]
ch2 : [1382, 1382, 1380, 1391, 1390, 1387, 1388, 1385, 1377, 1368]
ch3 : [2944, 2944, 2943, 2944, 2945, 2942, 2942, 2938, 2942, 2944]
ch0 : [2595, 2464, 2581, 2639, 2631, 2618, 2605, 2639, 2636, 2423]
ch1 : [3190, 3193, 3192, 3190, 3193, 3200, 3197, 3194, 3193, 3192]
ch2 : [1368, 1390, 1390, 1391, 1387, 1385, 1390, 1386, 1372, 1381]
ch3 : [2942, 2949, 2947, 2941, 2943, 2943, 2948, 2943, 2945, 2946]
ch0 : [2576, 2617, 2612, 2630, 2581, 2577, 2639, 2589, 2460, 2597]
ch1 : [3194, 3194, 3189, 3191, 3193, 3194, 3194, 3191, 3196, 3186]
ch2 : [1388, 1392, 1386, 1393, 1387, 1387, 1375, 1371, 1385, 1394]
ch3 : [2945, 2943, 2943, 2943, 2946, 2953, 2943, 2947, 2946, 2946]
ch0 : [2619, 2633, 2614, 2605, 2633, 2639, 2399, 2579, 2619, 2624]
ch1 : [3192, 3196, 3196, 3191, 3187, 3191, 3196, 3187, 3190, 3193]
ch2 : [1393, 1388, 1391, 1391, 1391, 1371, 1379, 1391, 1391, 1391]
ch3 : [2948, 2948, 2943, 2945, 2943, 2939, 2945, 2954, 2946, 2944]
ch0 : [2630, 2601, 2570, 2633, 2610, 2444, 2586, 2624, 2629, 2620]
ch1 : [3188, 3184, 3194, 3200, 3193, 3206, 3192, 3193, 3186, 3191]
ch2 : [1389, 1393, 1390, 1383, 1375, 1390, 1393, 1393, 1388, 1393]
ch3 : [2945, 2943, 2946, 2943, 2943, 2949, 2953, 2948, 2948, 2943]
ch0 : [2590, 2623, 2639, 2409, 2560, 2618, 2617, 2625, 2588, 2589]
ch1 : [3194, 3191, 3193, 3183, 3190, 3186, 3190, 3190, 3196, 3192]
ch2 : [1391, 1390, 1375, 1382, 1394, 1394, 1395, 1391, 1391, 1390]
ch3 : [2941, 2949, 2947, 2946, 2947, 2943, 2947, 2947, 2956, 2945]
ch0 : [2640, 2600, 2429, 2583, 2618, 2636, 2618, 2590, 2627, 2638]
ch1 : [3194, 3196, 3192, 3196, 3193, 3192, 3200, 3189, 3187, 3190]
ch2 : [1384, 1377, 1385, 1398, 1395, 1397, 1376, 1387, 1394, 1379]
ch3 : [2946, 2946, 2949, 2948, 2948, 2944, 2944, 2943, 2943, 2933]
ch0 : [2586, 2615, 2631, 2623, 2583, 2604, 2633, 2550, 2546, 2627]
ch1 : [3197, 3190, 3191, 3189, 3193, 3193, 3188, 3193, 3192, 3193]
ch2 : [1401, 1396, 1390, 1391, 1390, 1391, 1381, 1379, 1400, 1397]
ch3 : [2954, 2950, 2942, 2939, 2943, 2947, 2948, 2949, 2952, 2943]
ch0 : [2602, 2634, 2608, 2621, 2636, 2635, 2404, 2587, 2611, 2632]
ch1 : [3188, 3195, 3192, 3190, 3202, 3192, 3193, 3191, 3191, 3192]
ch2 : [1393, 1396, 1388, 1397, 1388, 1377, 1391, 1403, 1399, 1395]
ch3 : [2948, 2946, 2946, 2946, 2949, 2943, 2946, 2951, 2947, 2947]
ch0 : [2633, 2594, 2587, 2630, 2575, 2545, 2624, 2605, 2627, 2608]
ch1 : [3191, 3193, 3202, 3185, 3193, 3192, 3194, 3192, 3188, 3190]
ch2 : [1395, 1396, 1396, 1383, 1383, 1397, 1398, 1398, 1394, 1396]
ch3 : [2943, 2941, 2945, 2949, 2949, 2946, 2948, 2948, 2942, 2945]
ch0 : [2620, 2636, 2639, 2382, 2569, 2610, 2623, 2626, 2587, 2581]
ch1 : [3187, 3185, 3193, 3201, 3193, 3191, 3190, 3190, 3195, 3191]
ch2 : [1395, 1388, 1382, 1392, 1402, 1398, 1399, 1395, 1391, 1397]
ch3 : [2946, 2946, 2944, 2948, 2945, 2946, 2948, 2942, 2945, 2943]
ch0 : [2643, 2630, 2535, 2620, 2621, 2630, 2615, 2615, 2639, 2589]
ch1 : [3188, 3191, 3193, 3198, 3193, 3193, 3193, 3192, 3195, 3187]
ch2 : [1381, 1379, 1398, 1404, 1397, 1400, 1392, 1395, 1392, 1378]
ch3 : [2944, 2946, 2949, 2949, 2949, 2947, 2944, 2943, 2951, 2949]
ch0 : [2356, 2560, 2621, 2623, 2631, 2606, 2597, 2638, 2645, 2523]
ch1 : [3194, 3192, 3194, 3193, 3193, 3195, 3192, 3191, 3190, 3192]
ch2 : [1385, 1401, 1400, 1398, 1396, 1396, 1398, 1382, 1388, 1405]
ch3 : [2945, 2948, 2948, 2943, 2944, 2942, 2943, 2946, 2947, 2950]
ch0 : [2622, 2624, 2630, 2611, 2602, 2633, 2639, 2337, 2560, 2602]
ch1 : [3190, 3189, 3194, 3191, 3195, 3191, 3192, 3187, 3191, 3190]
ch2 : [1404, 1404, 1406, 1405, 1400, 1403, 1384, 1398, 1407, 1410]
ch3 : [2950, 2945, 2949, 2943, 2940, 2947, 2945, 2949, 2946, 2951]
ch0 : [2628, 2632, 2596, 2579, 2637, 2634, 2511, 2600, 2620, 2633]
ch1 : [3191, 3194, 3189, 3192, 3189, 3193, 3193, 3193, 3195, 3191]
ch2 : [1402, 1403, 1402, 1401, 1396, 1392, 1405, 1409, 1408, 1406]
ch3 : [2942, 2948, 2943, 2946, 2943, 2949, 2949, 2949, 2948, 2946]
ch0 : [2617, 2568, 2636, 2603, 2331, 2553, 2614, 2627, 2630, 2580]
ch1 : [3192, 3190, 3196, 3190, 3196, 3193, 3195, 3191, 3190, 3191]
ch2 : [1405, 1418, 1403, 1384, 1395, 1409, 1408, 1404, 1397, 1407]
ch3 : [2948, 2947, 2942, 2943, 2946, 2952, 2950, 2947, 2946, 2945]
ch0 : [2607, 2637, 2628, 2513, 2613, 2617, 2630, 2628, 2585, 2619]
ch1 : [3191, 3196, 3193, 3192, 3191, 3180, 3193, 3193, 3193, 3191]
ch2 : [1399, 1386, 1389, 1402, 1408, 1407, 1407, 1418, 1404, 1409]
ch3 : [2946, 2943, 2951, 2949, 2949, 2948, 2947, 2948, 2946, 2950]
ch0 : [2640, 2304, 2532, 2588, 2625, 2635, 2608, 2593, 2639, 2635]
ch1 : [3190, 3196, 3192, 3191, 3193, 3190, 3195, 3192, 3190, 3195]
ch2 : [1389, 1395, 1411, 1415, 1411, 1418, 1411, 1410, 1403, 1396]
ch3 : [2943, 2947, 2948, 2951, 2948, 2942, 2946, 2946, 2948, 2951]
ch0 : [2493, 2591, 2621, 2627, 2618, 2579, 2561, 2642, 2338, 2530]
ch1 : [3187, 3187, 3187, 3190, 3192, 3194, 3193, 3190, 3192, 3193]
ch2 : [1414, 1419, 1415, 1413, 1408, 1411, 1411, 1398, 1399, 1419]
ch3 : [2956, 2951, 2948, 2947, 2948, 2949, 2952, 2943, 2949, 2948]
ch0 : [2603, 2630, 2636, 2608, 2613, 2640, 2605, 2496, 2619, 2616]
ch1 : [3194, 3193, 3190, 3189, 3192, 3193, 3190, 3195, 3190, 3191]
ch2 : [1418, 1413, 1412, 1413, 1413, 1405, 1398, 1410, 1411, 1416]
ch3 : [2950, 2954, 2945, 2946, 2945, 2952, 2943, 2962, 2949, 2949]
ch0 : [2627, 2629, 2600, 2572, 2640, 2421, 2531, 2608, 2626, 2631]
ch1 : [3194, 3191, 3192, 3191, 3194, 3193, 3193, 3197, 3190, 3188]
ch2 : [1414, 1412, 1419, 1417, 1400, 1388, 1418, 1420, 1428, 1410]
ch3 : [2947, 2943, 2948, 2948, 2945, 2947, 2952, 2952, 2948, 2946]
ch0 : [2597, 2631, 2633, 2634, 2468, 2613, 2615, 2632, 2631, 2597]
ch1 : [3192, 3195, 3200, 3191, 3191, 3189, 3186, 3190, 3192, 3205]
ch2 : [1416, 1415, 1406, 1409, 1412, 1415, 1418, 1418, 1407, 1416]
ch3 : [2945, 2947, 2948, 2947, 2950, 2950, 2949, 2949, 2948, 2945]
ch0 : [2562, 2645, 2489, 2518, 2601, 2626, 2634, 2620, 2613, 2638]
ch1 : [3194, 3193, 3196, 3196, 3191, 3194, 3193, 3193, 3191, 3190]
ch2 : [1419, 1411, 1402, 1418, 1420, 1413, 1415, 1414, 1413, 1413]
ch3 : [2951, 2946, 2946, 2952, 2951, 2951, 2947, 2948, 2947, 2948]
ch0 : [2631, 2457, 2612, 2622, 2632, 2629, 2602, 2562, 2643, 2536]
ch1 : [3191, 3196, 3195, 3191, 3194, 3186, 3193, 3192, 3196, 3187]
ch2 : [1402, 1412, 1422, 1421, 1419, 1414, 1413, 1415, 1402, 1398]
ch3 : [2951, 2950, 2952, 2950, 2950, 2946, 2943, 2948, 2947, 2951]
ch0 : [2505, 2618, 2626, 2635, 2615, 2599, 2642, 2643, 2431, 2600]
ch1 : [3194, 3192, 3200, 3194, 3192, 3189, 3189, 3193, 3187, 3195]
ch2 : [1424, 1422, 1411, 1416, 1414, 1420, 1421, 1401, 1410, 1422]
ch3 : [2949, 2951, 2950, 2949, 2947, 2947, 2949, 2949, 2965, 2949]
ch0 : [2629, 2623, 2634, 2606, 2565, 2642, 2560, 2490, 2619, 2632]
ch1 : [3193, 3190, 3193, 3183, 3191, 3194, 3191, 3197, 3190, 3189]
ch2 : [1422, 1417, 1415, 1415, 1412, 1402, 1401, 1415, 1421, 1412]
ch3 : [2951, 2950, 2948, 2949, 2951, 2948, 2946, 2952, 2950, 2950]
ch0 : [2636, 2610, 2614, 2642, 2638, 2436, 2595, 2622, 2621, 2632]
ch1 : [3191, 3194, 3187, 3186, 3195, 3197, 3189, 3189, 3186, 3190]
ch2 : [1429, 1416, 1411, 1410, 1399, 1407, 1420, 1414, 1416, 1417]
ch3 : [2948, 2946, 2948, 2948, 2953, 2953, 2950, 2948, 2949, 2949]
ch0 : [2600, 2577, 2646, 2639, 2485, 2607, 2617, 2636, 2616, 2606]
ch1 : [3194, 3191, 3191, 3191, 3191, 3190, 3190, 3192, 3190, 3181]
ch2 : [1414, 1418, 1401, 1395, 1420, 1422, 1423, 1405, 1420, 1417]
ch3 : [2950, 2949, 2943, 2948, 2953, 2952, 2955, 2949, 2946, 2943]
ch0 : [2647, 2644, 2416, 2586, 2629, 2615, 2627, 2603, 2578, 2645]
ch1 : [3183, 3191, 3191, 3191, 3193, 3191, 3187, 3193, 3196, 3191]
ch2 : [1414, 1416, 1412, 1421, 1418, 1422, 1416, 1416, 1415, 1404]
ch3 : [2943, 2948, 2952, 2947, 2952, 2955, 2948, 2948, 2954, 2947]
ch0 : [2638, 2464, 2603, 2619, 2637, 2615, 2595, 2642, 2643, 2405]
ch1 : [3192, 3192, 3194, 3190, 3191, 3193, 3193, 3190, 3188, 3193]
ch2 : [1407, 1416, 1427, 1417, 1418, 1413, 1414, 1416, 1400, 1408]
ch3 : [2943, 2951, 2953, 2964, 2950, 2950, 2949, 2950, 2948, 2952]
ch0 : [2582, 2623, 2627, 2633, 2621, 2592, 2642, 2644, 2450, 2584]
ch1 : [3188, 3187, 3189, 3191, 3185, 3204, 3190, 3195, 3192, 3194]
ch2 : [1421, 1421, 1418, 1416, 1415, 1418, 1391, 1399, 1424, 1418]
ch3 : [2957, 2950, 2943, 2948, 2948, 2948, 2949, 2942, 2951, 2955]
ch0 : [2627, 2624, 2624, 2587, 2633, 2637, 2457, 2575, 2625, 2625]
ch1 : [3190, 3191, 3191, 3200, 3200, 3192, 3193, 3192, 3189, 3187]
ch2 : [1421, 1418, 1418, 1417, 1414, 1402, 1405, 1422, 1418, 1423]
ch3 : [2955, 2949, 2950, 2946, 2948, 2954, 2949, 2950, 2950, 2952]
ch0 : [2627, 2607, 2598, 2643, 2640, 2431, 2583, 2631, 2634, 2631]
ch1 : [3192, 3191, 3192, 3193, 3196, 3191, 3190, 3192, 3186, 3189]
ch2 : [1417, 1418, 1412, 1406, 1398, 1413, 1416, 1416, 1412, 1413]
ch3 : [2944, 2947, 2949, 2946, 2945, 2950, 2950, 2951, 2954, 2945]
ch0 : [2641, 2645, 2403, 2590, 2630, 2631, 2637, 2603, 2604, 2640]
ch1 : [3186, 3190, 3194, 3194, 3196, 3199, 3189, 3191, 3194, 3191]
ch2 : [1400, 1386, 1396, 1404, 1402, 1401, 1401, 1402, 1403, 1390]
ch3 : [2948, 2936, 2944, 2953, 2951, 2944, 2944, 2942, 2948, 2959]
ch0 : [2577, 2551, 2620, 2624, 2637, 2608, 2632, 2644, 2617, 2379]
ch1 : [3189, 3189, 3191, 3197, 3192, 3192, 3192, 3188, 3192, 3196]
ch2 : [1398, 1421, 1432, 1419, 1405, 1409, 1418, 1412, 1401, 1418]
ch3 : [2952, 2952, 2952, 2952, 2947, 2948, 2949, 2952, 2948, 2952]
ch0 : [2589, 2622, 2637, 2635, 2614, 2604, 2638, 2622, 2543, 2630]
ch1 : [3194, 3190, 3190, 3186, 3187, 3190, 3188, 3188, 3186, 3192]
ch2 : [1433, 1428, 1422, 1427, 1426, 1420, 1390, 1409, 1421, 1423]
ch3 : [2956, 2965, 2952, 2946, 2946, 2949, 2948, 2951, 2946, 2954]
ch0 : [2611, 2634, 2627, 2615, 2642, 2635, 2406, 2572, 2627, 2630]
ch1 : [3193, 3189, 3190, 3191, 3196, 3193, 3193, 3193, 3192, 3192]
ch2 : [1426, 1415, 1423, 1413, 1412, 1398, 1403, 1416, 1407, 1431]
ch3 : [2947, 2948, 2947, 2948, 2953, 2944, 2947, 2950, 2949, 2951]
ch0 : [2634, 2595, 2603, 2643, 2627, 2533, 2615, 2632, 2629, 2627]
ch1 : [3191, 3192, 3194, 3187, 3193, 3192, 3192, 3194, 3186, 3190]
ch2 : [1409, 1402, 1407, 1400, 1398, 1419, 1423, 1421, 1416, 1417]
ch3 : [2948, 2948, 2948, 2951, 2945, 2950, 2948, 2948, 2950, 2946]
ch0 : [2626, 2642, 2643, 2340, 2558, 2625, 2629, 2637, 2606, 2603]
ch1 : [3193, 3186, 3193, 3198, 3177, 3190, 3192, 3192, 3194, 3191]
ch2 : [1412, 1414, 1397, 1402, 1422, 1417, 1423, 1418, 1418, 1403]
ch3 : [2943, 2947, 2948, 2948, 2940, 2951, 2953, 2942, 2949, 2943]
ch0 : [2643, 2645, 2535, 2628, 2613, 2636, 2621, 2595, 2643, 2657]
ch1 : [3188, 3202, 3188, 3193, 3189, 3191, 3191, 3192, 3190, 3193]
ch2 : [1399, 1398, 1412, 1416, 1419, 1415, 1407, 1409, 1412, 1390]
ch3 : [2944, 2950, 2943, 2952, 2948, 2943, 2943, 2949, 2950, 2944]
ch0 : [2337, 2559, 2625, 2628, 2635, 2608, 2605, 2644, 2642, 2510]
ch1 : [3194, 3190, 3192, 3184, 3188, 3189, 3191, 3193, 3193, 3193]
ch2 : [1398, 1412, 1390, 1405, 1403, 1394, 1404, 1398, 1392, 1404]
ch3 : [2948, 2952, 2952, 2952, 2946, 2943, 2946, 2944, 2949, 2952]
ch0 : [2621, 2626, 2633, 2621, 2597, 2617, 2642, 2321, 2550, 2637]
ch1 : [3192, 3192, 3190, 3191, 3192, 3191, 3193, 3197, 3193, 3192]
ch2 : [1411, 1402, 1411, 1407, 1417, 1404, 1391, 1401, 1418, 1418]
ch3 : [2956, 2947, 2947, 2950, 2948, 2943, 2942, 2945, 2950, 2951]
ch0 : [2631, 2640, 2607, 2614, 2643, 2639, 2500, 2603, 2634, 2636]
ch1 : [3191, 3191, 3191, 3191, 3192, 3186, 3195, 3190, 3182, 3193]
ch2 : [1417, 1409, 1408, 1411, 1400, 1392, 1406, 1402, 1407, 1406]
ch3 : [2950, 2949, 2942, 2940, 2947, 2952, 2947, 2950, 2945, 2948]
ch0 : [2617, 2579, 2574, 2640, 2364, 2550, 2614, 2644, 2633, 2599]
ch1 : [3191, 3191, 3193, 3187, 3189, 3195, 3193, 3193, 3194, 3193]
ch2 : [1400, 1399, 1400, 1390, 1383, 1394, 1385, 1392, 1395, 1396]
ch3 : [2952, 2948, 2945, 2941, 2940, 2950, 2952, 2955, 2941, 2943]
ch0 : [2614, 2640, 2639, 2484, 2602, 2629, 2637, 2622, 2578, 2565]
ch1 : [3192, 3192, 3190, 3193, 3193, 3190, 3191, 3194, 3188, 3194]
ch2 : [1385, 1375, 1370, 1384, 1396, 1388, 1372, 1378, 1385, 1379]
ch3 : [2946, 2939, 2946, 2952, 2949, 2947, 2943, 2948, 2949, 2949]
ch0 : [2639, 2415, 2517, 2623, 2629, 2636, 2597, 2619, 2642, 2646]
ch1 : [3193, 3191, 3200, 3191, 3190, 3199, 3179, 3190, 3185, 3193]
ch2 : [1363, 1356, 1374, 1370, 1370, 1367, 1369, 1369, 1357, 1350]
ch3 : [2943, 2949, 2949, 2950, 2946, 2946, 2944, 2943, 2949, 2952]
ch0 : [2470, 2601, 2629, 2632, 2633, 2599, 2566, 2645, 2525, 2510]
ch1 : [3192, 3191, 3192, 3190, 3190, 3185, 3187, 3190, 3191, 3193]
ch2 : [1362, 1369, 1367, 1359, 1362, 1364, 1360, 1345, 1345, 1363]
ch3 : [2950, 2948, 2947, 2949, 2943, 2946, 2947, 2948, 2943, 2948]
ch0 : [2609, 2632, 2635, 2611, 2620, 2645, 2638, 2457, 2606, 2631]
ch1 : [3194, 3195, 3177, 3193, 3193, 3187, 3194, 3196, 3196, 3194]
ch2 : [1362, 1352, 1348, 1348, 1348, 1342, 1328, 1339, 1341, 1339]
ch3 : [2952, 2952, 2946, 2946, 2949, 2946, 2948, 2950, 2949, 2946]
ch0 : [2632, 2623, 2590, 2562, 2640, 2601, 2499, 2615, 2631, 2631]
ch1 : [3194, 3187, 3194, 3190, 3184, 3189, 3183, 3190, 3191, 3193]
ch2 : [1339, 1330, 1329, 1337, 1314, 1307, 1329, 1330, 1331, 1322]
ch3 : [2945, 2948, 2933, 2947, 2946, 2943, 2949, 2950, 2950, 2946]
ch0 : [2602, 2622, 2651, 2640, 2437, 2588, 2621, 2623, 2632, 2595]
ch1 : [3195, 3192, 3192, 3193, 3196, 3192, 3199, 3191, 3190, 3193]
ch2 : [1322, 1321, 1313, 1298, 1305, 1311, 1319, 1319, 1319, 1316]
ch3 : [2946, 2946, 2949, 2945, 2947, 2946, 2947, 2949, 2947, 2947]
ch0 : [2572, 2645, 2571, 2482, 2606, 2630, 2639, 2623, 2608, 2642]
ch1 : [3200, 3192, 3198, 3191, 3188, 3191, 3193, 3193, 3190, 3186]
ch2 : [1306, 1290, 1286, 1309, 1308, 1307, 1301, 1297, 1302, 1293]
ch3 : [2951, 2947, 2947, 2950, 2951, 2950, 2946, 2943, 2946, 2948]
ch0 : [2644, 2419, 2585, 2631, 2610, 2637, 2614, 2573, 2640, 2603]
ch1 : [3193, 3192, 3191, 3189, 3190, 3193, 3190, 3187, 3188, 3191]
ch2 : [1282, 1289, 1290, 1286, 1290, 1290, 1297, 1282, 1267, 1273]
ch3 : [2943, 2952, 2952, 2948, 2959, 2946, 2951, 2948, 2948, 2952]
ch0 : [2466, 2600, 2627, 2638, 2624, 2623, 2640, 2646, 2431, 2579]
ch1 : [3187, 3194, 3191, 3190, 3191, 3193, 3193, 3196, 3190, 3192]
ch2 : [1283, 1284, 1275, 1283, 1276, 1278, 1278, 1264, 1270, 1284]
ch3 : [2951, 2952, 2950, 2949, 2957, 2947, 2949, 2954, 2945, 2951]
ch0 : [2630, 2617, 2634, 2607, 2601, 2651, 2620, 2454, 2597, 2631]
ch1 : [3195, 3194, 3192, 3193, 3193, 3190, 3187, 3185, 3201, 3193]
ch2 : [1280, 1276, 1272, 1270, 1269, 1259, 1250, 1263, 1269, 1268]
ch3 : [2943, 2953, 2948, 2948, 2947, 2946, 2948, 2947, 2951, 2953]
ch0 : [2638, 2636, 2614, 2637, 2642, 2411, 2589, 2621, 2616, 2631]
ch1 : [3193, 3185, 3191, 3189, 3193, 3190, 3194, 3186, 3196, 3193]
ch2 : [1252, 1252, 1261, 1256, 1239, 1247, 1255, 1254, 1253, 1251]
ch3 : [2947, 2945, 2946, 2947, 2945, 2943, 2952, 2953, 2946, 2952]
ch0 : [2616, 2586, 2649, 2644, 2439, 2592, 2630, 2634, 2618, 2605]
ch1 : [3196, 3189, 3189, 3186, 3195, 3192, 3187, 3191, 3190, 3191]
ch2 : [1249, 1247, 1243, 1235, 1266, 1261, 1250, 1255, 1237, 1255]
ch3 : [2952, 2949, 2949, 2949, 2948, 2951, 2950, 2947, 2947, 2947]
ch0 : [2647, 2646, 2451, 2567, 2628, 2622, 2638, 2600, 2598, 2646]
ch1 : [3191, 3193, 3190, 3194, 3201, 3194, 3187, 3178, 3192, 3193]
ch2 : [1258, 1234, 1231, 1253, 1254, 1250, 1246, 1240, 1252, 1238]
ch3 : [2946, 2943, 2950, 2952, 2952, 2950, 2947, 2948, 2948, 2948]
ch0 : [2560, 2622, 2640, 2627, 2597, 2615, 2642, 2639, 2411, 2584]
ch1 : [3195, 3190, 3199, 3190, 3187, 3202, 3187, 3190, 3195, 3192]
ch2 : [1229, 1240, 1234, 1235, 1234, 1233, 1222, 1215, 1226, 1231]
ch3 : [2951, 2950, 2945, 2935, 2946, 2943, 2947, 2946, 2948, 2953]
ch0 : [2622, 2634, 2638, 2591, 2581, 2644, 2582, 2553, 2634, 2609]
ch1 : [3192, 3187, 3187, 3193, 3193, 3194, 3192, 3194, 3194, 3191]
ch2 : [1231, 1225, 1229, 1225, 1224, 1212, 1207, 1231, 1232, 1216]
ch3 : [2946, 2950, 2945, 2946, 2946, 2948, 2957, 2952, 2952, 2963]
ch0 : [2636, 2609, 2601, 2641, 2595, 2372, 2573, 2612, 2635, 2633]
ch1 : [3191, 3188, 3189, 3189, 3188, 3193, 3192, 3193, 3189, 3192]
ch2 : [1212, 1212, 1225, 1221, 1203, 1214, 1221, 1222, 1222, 1227]
ch3 : [2949, 2942, 2947, 2947, 2945, 2949, 2957, 2952, 2952, 2947]
ch0 : [2616, 2585, 2649, 2639, 2531, 2614, 2614, 2630, 2613, 2604]
ch1 : [3189, 3189, 3192, 3191, 3192, 3188, 3189, 3193, 3192, 3190]
ch2 : [1220, 1222, 1211, 1208, 1227, 1225, 1227, 1221, 1219, 1207]
ch3 : [2947, 2950, 2951, 2950, 2953, 2951, 2953, 2950, 2948, 2951]
ch0 : [2640, 2645, 2358, 2564, 2614, 2631, 2629, 2610, 2600, 2645]
ch1 : [3187, 3194, 3201, 3187, 3194, 3192, 3191, 3191, 3187, 3190]
ch2 : [1217, 1203, 1214, 1222, 1223, 1218, 1217, 1213, 1216, 1202]
ch3 : [2950, 2958, 2948, 2951, 2950, 2952, 2946, 2954, 2945, 2951]
ch0 : [2637, 2514, 2609, 2614, 2641, 2616, 2606, 2640, 2642, 2353]
ch1 : [3199, 3195, 3191, 3189, 3193, 3193, 3194, 3192, 3196, 3190]
ch2 : [1198, 1215, 1218, 1213, 1206, 1189, 1204, 1201, 1191, 1194]
ch3 : [2951, 2950, 2947, 2951, 2950, 2952, 2943, 2949, 2943, 2950]
ch0 : [2558, 2616, 2629, 2630, 2602, 2598, 2646, 2639, 2523, 2620]
ch1 : [3194, 3202, 3194, 3193, 3190, 3187, 3204, 3186, 3188, 3192]
ch2 : [1212, 1211, 1202, 1192, 1193, 1194, 1195, 1188, 1205, 1208]
ch3 : [2954, 2950, 2953, 2947, 2948, 2946, 2949, 2960, 2954, 2950]
ch0 : [2612, 2637, 2632, 2593, 2635, 2638, 2328, 2563, 2616, 2626]
ch1 : [3183, 3192, 3191, 3192, 3191, 3187, 3187, 3191, 3191, 3193]
ch2 : [1201, 1205, 1202, 1208, 1208, 1196, 1200, 1221, 1221, 1214]
ch3 : [2953, 2949, 2950, 2953, 2949, 2950, 2943, 2952, 2948, 2950]
ch0 : [2631, 2620, 2593, 2641, 2618, 2495, 2612, 2625, 2636, 2631]
ch1 : [3193, 3195, 3192, 3188, 3195, 3191, 3195, 3191, 3190, 3193]
ch2 : [1212, 1210, 1210, 1199, 1196, 1215, 1216, 1215, 1215, 1209]
ch3 : [2948, 2947, 2947, 2943, 2943, 2952, 2953, 2951, 2949, 2948]
ch0 : [2585, 2575, 2643, 2312, 2537, 2617, 2629, 2632, 2593, 2602]
ch1 : [3188, 3192, 3196, 3196, 3191, 3202, 3194, 3188, 3194, 3183]
ch2 : [1208, 1210, 1189, 1201, 1216, 1213, 1211, 1197, 1207, 1209]
ch3 : [2951, 2951, 2948, 2949, 2953, 2946, 2951, 2949, 2949, 2950]
ch0 : [2335, 2529, 2614, 2627, 2633, 2592, 2620, 2642, 2644, 2484]
ch1 : [3191, 3188, 3192, 3192, 3179, 3191, 3194, 3191, 3192, 3192]
ch2 : [1196, 1214, 1217, 1212, 1210, 1208, 1206, 1200, 1195, 1210]
ch3 : [2937, 2952, 2956, 2952, 2937, 2944, 2951, 2950, 2949, 2953]
ch0 : [2607, 2621, 2631, 2631, 2579, 2551, 2644, 2419, 2509, 2621]
ch1 : [3191, 3190, 3194, 3197, 3192, 3198, 3193, 3192, 3194, 3189]
ch2 : [1218, 1217, 1216, 1213, 1217, 1215, 1196, 1207, 1225, 1225]
ch3 : [2956, 2950, 2949, 2952, 2942, 2953, 2948, 2951, 2964, 2953]
ch0 : [2623, 2633, 2593, 2620, 2640, 2619, 2456, 2597, 2621, 2627]
ch1 : [3189, 3189, 3192, 3189, 3189, 3188, 3192, 3193, 3189, 3191]
ch2 : [1220, 1221, 1221, 1225, 1215, 1209, 1221, 1233, 1232, 1237]
ch3 : [2962, 2952, 2946, 2949, 2948, 2953, 2952, 2953, 2950, 2951]
ch0 : [2621, 2599, 2566, 2624, 2488, 2505, 2611, 2628, 2634, 2612]
ch1 : [3191, 3194, 3195, 3196, 3194, 3194, 3192, 3200, 3193, 3190]
ch2 : [1234, 1235, 1250, 1220, 1218, 1241, 1250, 1244, 1244, 1235]
ch3 : [2953, 2949, 2949, 2952, 2948, 2953, 2954, 2953, 2952, 2946]
ch0 : [2617, 2640, 2630, 2448, 2585, 2630, 2629, 2631, 2609, 2557]
ch1 : [3186, 3193, 3190, 3196, 3193, 3195, 3190, 3190, 3190, 3191]
ch2 : [1256, 1239, 1232, 1243, 1254, 1256, 1254, 1250, 1260, 1256]
ch3 : [2947, 2943, 2948, 2953, 2939, 2940, 2952, 2952, 2951, 2949]
ch0 : [2638, 2588, 2491, 2606, 2624, 2636, 2622, 2630, 2646, 2642]
ch1 : [3191, 3192, 3192, 3186, 3192, 3195, 3191, 3192, 3191, 3188]
ch2 : [1246, 1240, 1263, 1268, 1266, 1262, 1267, 1258, 1260, 1250]
ch3 : [2947, 2947, 2951, 2948, 2951, 2946, 2948, 2957, 2950, 2950]
ch0 : [2439, 2596, 2613, 2612, 2631, 2609, 2561, 2643, 2586, 2489]
ch1 : [3197, 3194, 3197, 3196, 3191, 3190, 3196, 3201, 3192, 3191]
ch2 : [1263, 1272, 1274, 1277, 1276, 1279, 1275, 1263, 1261, 1285]
ch3 : [2951, 2953, 2952, 2949, 2950, 2949, 2943, 2949, 2947, 2953]
ch0 : [2600, 2604, 2634, 2618, 2606, 2642, 2626, 2428, 2593, 2623]
ch1 : [3190, 3191, 3193, 3190, 3190, 3191, 3190, 3195, 3196, 3193]
ch2 : [1284, 1270, 1280, 1282, 1284, 1280, 1256, 1278, 1287, 1291]
ch3 : [2955, 2954, 2952, 2948, 2953, 2948, 2951, 2951, 2952, 2955]
ch0 : [2623, 2597, 2642, 2639, 2402, 2579, 2627, 2593, 2631, 2594]
ch1 : [3192, 3193, 3188, 3190, 3191, 3191, 3190, 3182, 3190, 3191]
ch2 : [1297, 1293, 1291, 1276, 1286, 1303, 1301, 1300, 1298, 1293]
ch3 : [2948, 2952, 2950, 2952, 2953, 2954, 2950, 2950, 2947, 2954]
ch0 : [2579, 2641, 2635, 2456, 2617, 2624, 2636, 2626, 2596, 2635]
ch1 : [3194, 3190, 3192, 3193, 3191, 3196, 3194, 3188, 3193, 3190]
ch2 : [1295, 1280, 1279, 1301, 1308, 1308, 1300, 1316, 1300, 1301]
ch3 : [2950, 2956, 2943, 2953, 2959, 2955, 2953, 2946, 2948, 2949]
ch0 : [2639, 2400, 2586, 2629, 2609, 2631, 2603, 2589, 2634, 2637]
ch1 : [3194, 3176, 3191, 3193, 3193, 3193, 3194, 3196, 3190, 3190]
ch2 : [1288, 1290, 1304, 1305, 1304, 1303, 1300, 1302, 1288, 1285]
ch3 : [2950, 2952, 2952, 2952, 2952, 2949, 2950, 2950, 2948, 2949]
ch0 : [2462, 2593, 2622, 2635, 2623, 2596, 2631, 2641, 2430, 2569]
ch1 : [3191, 3197, 3188, 3193, 3190, 3192, 3192, 3191, 3192, 3194]
ch2 : [1305, 1310, 1314, 1306, 1305, 1302, 1298, 1293, 1300, 1312]
ch3 : [2952, 2953, 2951, 2955, 2948, 2950, 2950, 2953, 2952, 2951]
ch0 : [2635, 2631, 2599, 2614, 2645, 2496, 2558, 2634, 2619, 2640]
ch1 : [3189, 3190, 3191, 3191, 3187, 3193, 3191, 3193, 3190, 3193]
ch2 : [1317, 1310, 1315, 1320, 1298, 1298, 1317, 1318, 1319, 1310]
ch3 : [2956, 2948, 2947, 2950, 2949, 2950, 2954, 2952, 2941, 2951]
ch0 : [2614, 2603, 2648, 2639, 2390, 2607, 2632, 2637, 2641, 2616]
ch1 : [3195, 3187, 3195, 3191, 3192, 3188, 3191, 3191, 3187, 3186]
ch2 : [1307, 1313, 1306, 1297, 1310, 1309, 1317, 1317, 1316, 1310]
ch3 : [2951, 2941, 2952, 2949, 2951, 2954, 2954, 2942, 2947, 2949]
ch0 : [2599, 2647, 2559, 2572, 2639, 2632, 2639, 2634, 2619, 2653]
ch1 : [3190, 3186, 3190, 3195, 3189, 3191, 3191, 3191, 3185, 3187]
ch2 : [1317, 1313, 1286, 1317, 1322, 1320, 1312, 1311, 1315, 1308]
ch3 : [2950, 2951, 2955, 2953, 2953, 2952, 2953, 2950, 2951, 2952]
ch0 : [2652, 2409, 2596, 2636, 2638, 2639, 2633, 2600, 2647, 2608]
ch1 : [3193, 3192, 3187, 3193, 3188, 3187, 3191, 3200, 3193, 3187]
ch2 : [1295, 1317, 1320, 1321, 1315, 1314, 1317, 1317, 1304, 1302]
ch3 : [2952, 2951, 2955, 2952, 2956, 2948, 2947, 2953, 2952, 2967]
ch0 : [2557, 2633, 2630, 2641, 2637, 2638, 2650, 2651, 2397, 2583]
ch1 : [3188, 3190, 3191, 3183, 3191, 3192, 3187, 3202, 3193, 3194]
ch2 : [1320, 1325, 1320, 1319, 1316, 1317, 1307, 1301, 1314, 1318]
ch3 : [2952, 2951, 2953, 2960, 2949, 2948, 2950, 2947, 2951, 2943]
ch0 : [2638, 2639, 2644, 2593, 2599, 2653, 2636, 2548, 2631, 2632]
ch1 : [3191, 3190, 3193, 3193, 3195, 3191, 3190, 3190, 3189, 3190]
ch2 : [1317, 1319, 1316, 1317, 1319, 1302, 1300, 1321, 1318, 1325]
ch3 : [2953, 2961, 2947, 2946, 2950, 2947, 2952, 2947, 2950, 2951]
ch0 : [2642, 2632, 2622, 2647, 2646, 2359, 2578, 2626, 2639, 2644]
ch1 : [3183, 3202, 3192, 3191, 3192, 3197, 3193, 3190, 3197, 3193]
ch2 : [1321, 1319, 1319, 1322, 1305, 1312, 1326, 1330, 1323, 1316]
ch3 : [2947, 2953, 2952, 2954, 2948, 2953, 2950, 2956, 2948, 2949]
ch0 : [2614, 2603, 2652, 2653, 2534, 2622, 2633, 2647, 2643, 2618]
ch1 : [3192, 3191, 3190, 3191, 3195, 3191, 3191, 3191, 3190, 3191]
ch2 : [1316, 1318, 1306, 1306, 1325, 1329, 1322, 1325, 1325, 1310]
ch3 : [2950, 2952, 2940, 2952, 2952, 2951, 2952, 2951, 2947, 2953]
ch0 : [2651, 2659, 2342, 2573, 2635, 2636, 2644, 2601, 2612, 2649]
ch1 : [3186, 3191, 3191, 3205, 3193, 3193, 3194, 3192, 3192, 3189]
ch2 : [1319, 1303, 1314, 1327, 1327, 1324, 1321, 1320, 1317, 1315]
ch3 : [2951, 2948, 2952, 2953, 2953, 2952, 2948, 2947, 2948, 2947]
ch0 : [2650, 2525, 2628, 2641, 2644, 2629, 2596, 2644, 2646, 2327]
ch1 : [3189, 3191, 3193, 3196, 3181, 3191, 3192, 3190, 3190, 3196]
ch2 : [1309, 1319, 1327, 1326, 1324, 1324, 1319, 1328, 1303, 1314]
ch3 : [2952, 2949, 2953, 2952, 2950, 2947, 2952, 2951, 2948, 2948]
ch0 : [2569, 2623, 2642, 2643, 2596, 2613, 2647, 2640, 2495, 2625]
ch1 : [3191, 3194, 3199, 3191, 3193, 3191, 3193, 3195, 3195, 3191]
ch2 : [1330, 1331, 1314, 1327, 1325, 1324, 1314, 1308, 1325, 1334]
ch3 : [2951, 2956, 2955, 2948, 2947, 2953, 2950, 2956, 2957, 2952]
ch0 : [2631, 2638, 2640, 2582, 2596, 2650, 2327, 2548, 2642, 2626]
ch1 : [3191, 3191, 3188, 3190, 3191, 3187, 3198, 3192, 3191, 3193]
ch2 : [1327, 1328, 1332, 1327, 1326, 1312, 1315, 1331, 1332, 1329]
ch3 : [2955, 2956, 2950, 2951, 2950, 2949, 2949, 2952, 2965, 2951]
ch0 : [2656, 2602, 2591, 2648, 2637, 2510, 2626, 2633, 2639, 2639]
ch1 : [3179, 3191, 3194, 3193, 3191, 3193, 3187, 3192, 3186, 3193]
ch2 : [1326, 1320, 1324, 1316, 1311, 1326, 1330, 1331, 1330, 1327]
ch3 : [2951, 2947, 2950, 2948, 2952, 2954, 2948, 2956, 2955, 2948]
ch0 : [2589, 2588, 2649, 2361, 2546, 2631, 2638, 2646, 2620, 2623]
ch1 : [3191, 3194, 3177, 3191, 3192, 3192, 3183, 3198, 3193, 3194]
ch2 : [1321, 1336, 1305, 1313, 1351, 1335, 1326, 1332, 1326, 1327]
ch3 : [2951, 2950, 2948, 2947, 2953, 2951, 2950, 2948, 2948, 2949]
ch0 : [2649, 2648, 2496, 2624, 2626, 2643, 2640, 2585, 2576, 2642]
ch1 : [3191, 3191, 3189, 3196, 3191, 3186, 3200, 3190, 3187, 3191]
ch2 : [1320, 1314, 1329, 1333, 1330, 1330, 1329, 1332, 1331, 1319]
ch3 : [2954, 2956, 2955, 2951, 2953, 2953, 2947, 2949, 2956, 2956]
ch0 : [2447, 2561, 2623, 2641, 2642, 2604, 2631, 2652, 2647, 2479]
ch1 : [3200, 3190, 3179, 3190, 3193, 3186, 3191, 3193, 3193, 3194]
