device found = /dev/cu.usbmodem14433
ch0 : [2601, 2618, 2615, 2588, 2560, 2632, 2602, 2447, 2575, 2605]
ch1 : [3185, 3190, 3184, 3190, 3196, 3188, 3184, 3179, 3183, 3184]
ch2 : [1639, 1635, 1635, 1636, 1640, 1624, 1621, 1636, 1642, 1637]
ch3 : [2637, 2641, 2632, 2636, 2638, 2634, 2634, 2635, 2640, 2638]
ch0 : [2621, 2607, 2585, 2627, 2630, 2393, 2560, 2605, 2598, 2617]
ch1 : [3184, 3190, 3188, 3187, 3198, 3184, 3185, 3184, 3187, 3189]
ch2 : [1633, 1635, 1632, 1634, 1627, 1625, 1640, 1637, 1638, 1633]
ch3 : [2636, 2637, 2636, 2639, 2646, 2637, 2640, 2638, 2639, 2636]
ch0 : [2588, 2558, 2627, 2632, 2431, 2579, 2619, 2625, 2608, 2634]
ch1 : [3180, 3188, 3184, 3184, 3182, 3182, 3184, 3192, 3186, 3190]
ch2 : [1628, 1633, 1630, 1617, 1636, 1637, 1639, 1633, 1635, 1628]
ch3 : [2630, 2635, 2637, 2633, 2635, 2640, 2640, 2637, 2644, 2637]
ch0 : [2582, 2428, 2583, 2602, 2621, 2608, 2585, 2631, 2616, 2416]
ch1 : [3181, 3181, 3182, 3185, 3192, 3189, 3190, 3186, 3188, 3185]
ch2 : [1620, 1635, 1638, 1632, 1632, 1632, 1639, 1636, 1634, 1624]
ch3 : [2636, 2638, 2644, 2641, 2645, 2647, 2637, 2637, 2642, 2641]
ch0 : [2552, 2619, 2605, 2626, 2600, 2583, 2638, 2636, 2408, 2573]
ch1 : [3186, 3189, 3181, 3185, 3188, 3189, 3187, 3186, 3168, 3183]
ch2 : [1640, 1636, 1632, 1631, 1634, 1633, 1625, 1619, 1637, 1635]
ch3 : [2642, 2644, 2643, 2644, 2639, 2639, 2638, 2636, 2643, 2645]
ch0 : [2613, 2636, 2621, 2583, 2609, 2635, 2455, 2551, 2604, 2603]
ch1 : [3184, 3187, 3189, 3189, 3183, 3184, 3188, 3194, 3183, 3186]
ch2 : [1636, 1626, 1632, 1633, 1633, 1623, 1623, 1636, 1641, 1632]
ch3 : [2644, 2645, 2639, 2642, 2646, 2638, 2641, 2647, 2645, 2642]
ch0 : [2624, 2575, 2584, 2634, 2614, 2380, 2566, 2600, 2628, 2609]
ch1 : [3190, 3187, 3181, 3186, 3183, 3184, 3184, 3186, 3185, 3183]
ch2 : [1633, 1636, 1634, 1622, 1619, 1622, 1638, 1632, 1634, 1635]
ch3 : [2650, 2641, 2645, 2643, 2641, 2645, 2647, 2643, 2647, 2642]
ch0 : [2571, 2589, 2635, 2487, 2531, 2595, 2588, 2615, 2596, 2587]
ch1 : [3187, 3187, 3168, 3185, 3185, 3186, 3189, 3189, 3192, 3189]
ch2 : [1630, 1637, 1622, 1621, 1639, 1638, 1635, 1634, 1632, 1636]
ch3 : [2641, 2647, 2644, 2640, 2645, 2645, 2645, 2643, 2644, 2643]
ch0 : [2631, 2595, 2380, 2564, 2612, 2622, 2598, 2573, 2569, 2627]
ch1 : [3187, 3198, 3185, 3188, 3185, 3189, 3190, 3189, 3181, 3183]
ch2 : [1627, 1618, 1633, 1638, 1634, 1633, 1635, 1633, 1636, 1636]
ch3 : [2644, 2638, 2644, 2638, 2649, 2643, 2645, 2643, 2645, 2642]
ch0 : [2555, 2536, 2598, 2583, 2614, 2591, 2596, 2628, 2600, 2359]
ch1 : [3188, 3185, 3187, 3187, 3189, 3188, 3188, 3188, 3185, 3179]
ch2 : [1627, 1635, 1638, 1635, 1635, 1642, 1628, 1629, 1616, 1631]
ch3 : [2646, 2641, 2646, 2646, 2644, 2643, 2644, 2643, 2643, 2648]
ch0 : [2584, 2614, 2580, 2557, 2627, 2599, 2339, 2552, 2599, 2616]
ch1 : [3187, 3188, 3189, 3183, 3190, 3192, 3180, 3180, 3186, 3187]
ch2 : [1647, 1637, 1640, 1628, 1629, 1618, 1630, 1634, 1636, 1632]
ch3 : [2648, 2647, 2648, 2648, 2642, 2645, 2644, 2650, 2649, 2652]
ch0 : [2614, 2577, 2571, 2621, 2615, 2514, 2599, 2591, 2612, 2584]
ch1 : [3189, 3188, 3187, 3188, 3185, 3186, 3184, 3188, 3189, 3189]
ch2 : [1635, 1636, 1632, 1623, 1621, 1634, 1635, 1636, 1632, 1635]
ch3 : [2647, 2649, 2647, 2646, 2645, 2650, 2648, 2647, 2645, 2649]
ch0 : [2600, 2625, 2608, 2334, 2540, 2604, 2607, 2619, 2570, 2571]
ch1 : [3188, 3187, 3187, 3184, 3182, 3184, 3188, 3185, 3187, 3183]
ch2 : [1634, 1633, 1617, 1626, 1624, 1636, 1636, 1636, 1635, 1640]
ch3 : [2648, 2650, 2646, 2648, 2652, 2651, 2650, 2654, 2652, 2650]
ch0 : [2628, 2590, 2515, 2594, 2595, 2605, 2596, 2566, 2617, 2615]
ch1 : [3187, 3188, 3188, 3183, 3179, 3187, 3187, 3189, 3187, 3182]
ch2 : [1614, 1622, 1632, 1638, 1648, 1634, 1636, 1634, 1631, 1621]
ch3 : [2645, 2655, 2652, 2654, 2653, 2649, 2652, 2648, 2654, 2647]
ch0 : [2318, 2543, 2599, 2598, 2618, 2579, 2584, 2624, 2583, 2508]
ch1 : [3184, 3182, 3187, 3188, 3186, 3187, 3188, 3186, 3183, 3187]
ch2 : [1624, 1634, 1641, 1634, 1636, 1637, 1631, 1623, 1622, 1635]
ch3 : [2647, 2642, 2654, 2652, 2644, 2646, 2651, 2645, 2648, 2652]
ch0 : [2585, 2595, 2611, 2593, 2569, 2623, 2614, 2298, 2529, 2598]
ch1 : [3187, 3187, 3191, 3183, 3190, 3184, 3181, 3185, 3188, 3184]
ch2 : [1636, 1636, 1630, 1633, 1634, 1634, 1620, 1625, 1638, 1625]
ch3 : [2650, 2651, 2650, 2640, 2653, 2653, 2651, 2653, 2652, 2657]
ch0 : [2611, 2615, 2549, 2570, 2626, 2615, 2504, 2596, 2594, 2613]
ch1 : [3182, 3190, 3185, 3191, 3189, 3183, 3186, 3190, 3189, 3198]
ch2 : [1633, 1635, 1627, 1630, 1623, 1612, 1636, 1633, 1635, 1635]
ch3 : [2653, 2654, 2652, 2653, 2656, 2648, 2653, 2654, 2652, 2644]
ch0 : [2606, 2575, 2622, 2619, 2313, 2531, 2594, 2593, 2615, 2572]
ch1 : [3186, 3192, 3193, 3185, 3189, 3183, 3185, 3189, 3185, 3192]
ch2 : [1634, 1632, 1647, 1623, 1627, 1652, 1638, 1635, 1630, 1634]
ch3 : [2652, 2651, 2650, 2647, 2651, 2653, 2655, 2666, 2653, 2648]
ch0 : [2567, 2628, 2618, 2480, 2588, 2596, 2607, 2606, 2560, 2605]
ch1 : [3190, 3190, 3183, 3184, 3187, 3186, 3188, 3189, 3197, 3193]
ch2 : [1635, 1625, 1622, 1635, 1640, 1633, 1637, 1626, 1634, 1634]
ch3 : [2650, 2650, 2651, 2656, 2653, 2654, 2651, 2653, 2653, 2637]
ch0 : [2606, 2312, 2527, 2592, 2599, 2619, 2559, 2575, 2624, 2637]
ch1 : [3181, 3185, 3182, 3186, 3186, 3187, 3188, 3189, 3191, 3185]
ch2 : [1606, 1624, 1639, 1639, 1635, 1631, 1640, 1634, 1626, 1621]
ch3 : [2651, 2652, 2652, 2652, 2655, 2646, 2651, 2652, 2653, 2648]
ch0 : [2580, 2611, 2615, 2562, 2578, 2622, 2617, 2471, 2584, 2587]
ch1 : [3183, 3185, 3187, 3176, 3199, 3189, 3175, 3190, 3183, 3188]
ch2 : [1638, 1636, 1638, 1630, 1634, 1623, 1624, 1631, 1639, 1641]
ch3 : [2655, 2653, 2653, 2654, 2651, 2655, 2651, 2651, 2656, 2657]
ch0 : [2609, 2589, 2556, 2541, 2624, 2303, 2506, 2592, 2611, 2617]
ch1 : [3190, 3189, 3191, 3183, 3188, 3187, 3184, 3188, 3186, 3184]
ch2 : [1636, 1637, 1638, 1640, 1622, 1627, 1637, 1641, 1640, 1636]
ch3 : [2659, 2657, 2654, 2650, 2650, 2654, 2656, 2658, 2655, 2653]
ch0 : [2577, 2577, 2623, 2620, 2455, 2570, 2600, 2613, 2613, 2540]
ch1 : [3185, 3189, 3188, 3185, 3189, 3188, 3184, 3188, 3189, 3192]
ch2 : [1633, 1635, 1628, 1634, 1634, 1636, 1636, 1644, 1636, 1636]
ch3 : [2652, 2655, 2648, 2654, 2655, 2653, 2659, 2657, 2657, 2656]
ch0 : [2538, 2624, 2306, 2507, 2582, 2605, 2615, 2563, 2595, 2628]
ch1 : [3187, 3191, 3188, 3183, 3186, 3183, 3182, 3193, 3186, 3189]
ch2 : [1633, 1626, 1629, 1640, 1643, 1637, 1638, 1635, 1637, 1642]
ch3 : [2658, 2654, 2653, 2655, 2664, 2661, 2658, 2655, 2665, 2652]
ch0 : [2638, 2459, 2576, 2603, 2615, 2604, 2557, 2537, 2624, 2348]
ch1 : [3183, 3189, 3186, 3184, 3183, 3190, 3192, 3194, 3177, 3182]
ch2 : [1625, 1636, 1642, 1641, 1636, 1642, 1637, 1637, 1621, 1621]
ch3 : [2652, 2658, 2653, 2654, 2659, 2656, 2655, 2652, 2651, 2652]
ch0 : [2507, 2586, 2608, 2615, 2586, 2594, 2621, 2628, 2440, 2573]
ch1 : [3185, 3190, 3182, 3190, 3188, 3187, 3187, 3186, 3190, 3189]
ch2 : [1637, 1637, 1637, 1635, 1638, 1637, 1629, 1622, 1633, 1639]
ch3 : [2659, 2660, 2659, 2654, 2654, 2656, 2666, 2655, 2661, 2657]
ch0 : [2591, 2611, 2608, 2570, 2528, 2625, 2428, 2487, 2596, 2609]
ch1 : [3171, 3189, 3192, 3188, 3186, 3187, 3186, 3184, 3185, 3188]
ch2 : [1642, 1641, 1640, 1636, 1636, 1618, 1622, 1643, 1636, 1638]
ch3 : [2654, 2644, 2655, 2665, 2656, 2655, 2655, 2658, 2661, 2661]
ch0 : [2610, 2594, 2592, 2621, 2611, 2449, 2567, 2591, 2612, 2605]
ch1 : [3198, 3200, 3191, 3184, 3186, 3181, 3186, 3188, 3188, 3192]
ch2 : [1635, 1635, 1636, 1627, 1621, 1637, 1639, 1643, 1638, 1639]
ch3 : [2657, 2658, 2656, 2659, 2651, 2656, 2658, 2659, 2669, 2660]
ch0 : [2569, 2527, 2620, 2476, 2481, 2563, 2608, 2614, 2552, 2586]
ch1 : [3187, 3188, 3190, 3195, 3188, 3185, 3186, 3189, 3188, 3184]
ch2 : [1655, 1638, 1623, 1624, 1640, 1642, 1641, 1631, 1640, 1637]
ch3 : [2653, 2653, 2659, 2659, 2661, 2656, 2662, 2655, 2658, 2658]
ch0 : [2624, 2584, 2431, 2558, 2591, 2604, 2598, 2553, 2527, 2619]
ch1 : [3193, 3188, 3186, 3184, 3196, 3189, 3187, 3196, 3193, 3188]
ch2 : [1627, 1617, 1633, 1640, 1635, 1643, 1633, 1638, 1637, 1625]
ch3 : [2656, 2652, 2658, 2659, 2661, 2659, 2658, 2665, 2658, 2655]
ch0 : [2552, 2459, 2573, 2600, 2612, 2575, 2577, 2617, 2618, 2415]
ch1 : [3191, 3186, 3188, 3188, 3183, 3188, 3188, 3192, 3189, 3184]
ch2 : [1618, 1641, 1636, 1648, 1635, 1645, 1632, 1631, 1623, 1633]
ch3 : [2654, 2653, 2664, 2661, 2657, 2656, 2656, 2655, 2656, 2660]
ch0 : [2556, 2591, 2593, 2595, 2558, 2531, 2618, 2540, 2456, 2567]
ch1 : [3185, 3188, 3185, 3192, 3189, 3189, 3185, 3188, 3184, 3192]
ch2 : [1645, 1641, 1634, 1640, 1636, 1640, 1619, 1611, 1651, 1651]
ch3 : [2661, 2660, 2655, 2655, 2661, 2658, 2654, 2656, 2659, 2664]
ch0 : [2589, 2605, 2578, 2576, 2623, 2602, 2405, 2543, 2585, 2582]
ch1 : [3188, 3186, 3189, 3191, 3191, 3184, 3186, 3190, 3186, 3188]
ch2 : [1637, 1638, 1636, 1629, 1631, 1624, 1633, 1641, 1639, 1639]
ch3 : [2656, 2663, 2657, 2660, 2661, 2656, 2660, 2663, 2660, 2661]
ch0 : [2605, 2553, 2528, 2614, 2594, 2430, 2564, 2591, 2607, 2590]
ch1 : [3190, 3194, 3182, 3183, 3201, 3180, 3182, 3183, 3178, 3189]
ch2 : [1641, 1640, 1635, 1624, 1623, 1637, 1641, 1641, 1638, 1641]
ch3 : [2658, 2660, 2660, 2661, 2653, 2661, 2661, 2664, 2660, 2670]
ch0 : [2578, 2600, 2603, 2387, 2538, 2588, 2571, 2589, 2556, 2525]
ch1 : [3188, 3191, 3188, 3181, 3192, 3186, 3192, 3192, 3186, 3183]
ch2 : [1640, 1635, 1625, 1632, 1640, 1634, 1635, 1636, 1626, 1638]
ch3 : [2662, 2658, 2659, 2660, 2671, 2662, 2661, 2656, 2661, 2659]
ch0 : [2617, 2564, 2416, 2564, 2581, 2604, 2580, 2560, 2616, 2601]
ch1 : [3187, 3187, 3185, 3187, 3186, 3186, 3187, 3187, 3187, 3184]
ch2 : [1625, 1625, 1639, 1642, 1641, 1636, 1636, 1639, 1636, 1622]
ch3 : [2654, 2660, 2663, 2664, 2660, 2663, 2655, 2663, 2660, 2669]
ch0 : [2372, 2540, 2589, 2567, 2589, 2567, 2526, 2611, 2576, 2406]
ch1 : [3196, 3179, 3185, 3188, 3188, 3189, 3188, 3198, 3189, 3185]
ch2 : [1630, 1641, 1638, 1638, 1640, 1635, 1639, 1624, 1617, 1639]
ch3 : [2661, 2661, 2663, 2663, 2660, 2659, 2662, 2661, 2655, 2664]
ch0 : [2550, 2581, 2608, 2590, 2563, 2604, 2608, 2363, 2529, 2566]
ch1 : [3185, 3187, 3188, 3190, 3192, 3189, 3183, 3194, 3188, 3188]
ch2 : [1629, 1639, 1636, 1632, 1635, 1636, 1623, 1627, 1640, 1641]
ch3 : [2668, 2650, 2662, 2661, 2661, 2661, 2658, 2662, 2663, 2662]
ch0 : [2567, 2601, 2557, 2525, 2610, 2612, 2400, 2552, 2583, 2595]
ch1 : [3192, 3188, 3190, 3188, 3190, 3188, 3192, 3191, 3187, 3188]
ch2 : [1639, 1635, 1638, 1636, 1627, 1619, 1642, 1640, 1640, 1641]
ch3 : [2662, 2663, 2658, 2665, 2657, 2659, 2663, 2665, 2666, 2662]
ch0 : [2587, 2551, 2602, 2607, 2373, 2527, 2554, 2610, 2517, 2598]
ch1 : [3190, 3174, 3176, 3183, 3183, 3188, 3184, 3188, 3188, 3188]
ch2 : [1630, 1634, 1639, 1619, 1628, 1644, 1638, 1632, 1633, 1639]
ch3 : [2657, 2661, 2659, 2661, 2664, 2664, 2662, 2663, 2655, 2662]
ch0 : [2608, 2348, 2531, 2551, 2565, 2596, 2546, 2513, 2602, 2582]
ch1 : [3189, 3186, 3187, 3183, 3186, 3184, 3188, 3186, 3191, 3188]
ch2 : [1626, 1627, 1638, 1639, 1641, 1638, 1640, 1636, 1628, 1618]
ch3 : [2661, 2673, 2666, 2662, 2663, 2662, 2662, 2665, 2664, 2658]
ch0 : [2382, 2510, 2549, 2600, 2593, 2554, 2576, 2609, 2372, 2496]
ch1 : [3186, 3189, 3185, 3188, 3190, 3189, 3193, 3188, 3186, 3187]
ch2 : [1635, 1642, 1637, 1636, 1631, 1636, 1635, 1623, 1624, 1637]
ch3 : [2663, 2667, 2666, 2665, 2663, 2664, 2664, 2655, 2662, 2669]
ch0 : [2564, 2561, 2601, 2538, 2518, 2605, 2600, 2349, 2532, 2579]
ch1 : [3186, 3186, 3186, 3188, 3190, 3188, 3187, 3183, 3181, 3184]
ch2 : [1640, 1638, 1636, 1637, 1634, 1626, 1622, 1638, 1648, 1645]
ch3 : [2672, 2669, 2674, 2656, 2666, 2663, 2658, 2668, 2669, 2665]
ch0 : [2599, 2576, 2535, 2551, 2603, 2433, 2509, 2563, 2546, 2583]
ch1 : [3199, 3184, 3185, 3188, 3182, 3188, 3185, 3184, 3180, 3184]
ch2 : [1643, 1642, 1639, 1652, 1630, 1636, 1644, 1647, 1641, 1646]
ch3 : [2665, 2665, 2663, 2658, 2659, 2661, 2670, 2668, 2664, 2664]
ch0 : [2564, 2541, 2602, 2570, 2351, 2517, 2557, 2600, 2593, 2538]
ch1 : [3192, 3182, 3190, 3188, 3183, 3184, 3188, 3191, 3188, 3186]
ch2 : [1645, 1645, 1637, 1630, 1640, 1643, 1647, 1629, 1638, 1639]
ch3 : [2663, 2667, 2663, 2660, 2663, 2671, 2666, 2667, 2664, 2664]
ch0 : [2538, 2603, 2470, 2495, 2566, 2563, 2581, 2556, 2541, 2606]
ch1 : [3195, 3186, 3185, 3185, 3188, 3190, 3187, 3192, 3187, 3193]
ch2 : [1636, 1630, 1636, 1635, 1641, 1649, 1645, 1639, 1636, 1625]
ch3 : [2662, 2663, 2663, 2669, 2670, 2666, 2659, 2660, 2663, 2666]
ch0 : [2567, 2330, 2518, 2563, 2592, 2575, 2549, 2534, 2602, 2500]
ch1 : [3184, 3181, 3170, 3184, 3188, 3194, 3187, 3183, 3187, 3188]
ch2 : [1620, 1635, 1646, 1640, 1651, 1630, 1628, 1633, 1620, 1618]
ch3 : [2662, 2662, 2666, 2667, 2666, 2665, 2665, 2666, 2668, 2666]
ch0 : [2490, 2549, 2547, 2578, 2547, 2542, 2601, 2601, 2311, 2500]
ch1 : [3185, 3184, 3183, 3186, 3187, 3187, 3188, 3189, 3182, 3187]
ch2 : [1632, 1631, 1634, 1634, 1625, 1633, 1632, 1619, 1637, 1645]
ch3 : [2669, 2664, 2666, 2667, 2665, 2664, 2665, 2670, 2668, 2666]
ch0 : [2560, 2584, 2582, 2526, 2524, 2589, 2527, 2494, 2558, 2550]
ch1 : [3188, 3190, 3187, 3193, 3191, 3191, 3185, 3185, 3183, 3189]
ch2 : [1642, 1637, 1638, 1632, 1631, 1631, 1634, 1642, 1638, 1641]
ch3 : [2670, 2671, 2665, 2665, 2668, 2655, 2667, 2666, 2669, 2668]
ch0 : [2566, 2534, 2552, 2600, 2595, 2302, 2503, 2542, 2583, 2572]
ch1 : [3186, 3185, 3187, 3184, 3187, 3179, 3187, 3173, 3188, 3203]
ch2 : [1641, 1637, 1641, 1633, 1626, 1643, 1649, 1646, 1649, 1642]
ch3 : [2667, 2664, 2666, 2665, 2660, 2666, 2666, 2669, 2668, 2663]
ch0 : [2531, 2529, 2593, 2590, 2469, 2544, 2549, 2576, 2540, 2539]
ch1 : [3181, 3182, 3185, 3188, 3189, 3200, 3187, 3190, 3188, 3193]
ch2 : [1638, 1642, 1631, 1637, 1643, 1645, 1642, 1636, 1642, 1628]
ch3 : [2663, 2668, 2666, 2663, 2666, 2669, 2666, 2663, 2665, 2663]
ch0 : [2596, 2498, 2293, 2518, 2559, 2574, 2580, 2540, 2534, 2597]
ch1 : [3193, 3179, 3188, 3184, 3185, 3188, 3192, 3193, 3192, 3189]
ch2 : [1629, 1614, 1616, 1625, 1634, 1625, 1619, 1619, 1620, 1608]
ch3 : [2662, 2662, 2666, 2668, 2667, 2669, 2662, 2665, 2666, 2664]
ch0 : [2584, 2460, 2558, 2575, 2577, 2558, 2567, 2592, 2579, 2295]
ch1 : [3185, 3184, 3188, 3193, 3188, 3191, 3192, 3193, 3188, 3189]
ch2 : [1609, 1617, 1611, 1609, 1610, 1615, 1602, 1604, 1593, 1605]
ch3 : [2661, 2676, 2668, 2673, 2666, 2669, 2665, 2672, 2663, 2667]
ch0 : [2503, 2549, 2578, 2584, 2527, 2562, 2598, 2594, 2469, 2564]
ch1 : [3183, 3197, 3191, 3188, 3188, 3193, 3190, 3187, 3190, 3186]
ch2 : [1617, 1610, 1606, 1601, 1596, 1598, 1589, 1582, 1606, 1602]
ch3 : [2655, 2672, 2670, 2663, 2669, 2667, 2667, 2666, 2667, 2672]
ch0 : [2558, 2587, 2572, 2532, 2599, 2599, 2299, 2502, 2563, 2582]
ch1 : [3190, 3186, 3200, 3192, 3192, 3193, 3189, 3191, 3192, 3193]
ch2 : [1607, 1602, 1599, 1596, 1594, 1581, 1593, 1596, 1595, 1591]
ch3 : [2673, 2667, 2668, 2669, 2682, 2665, 2670, 2672, 2670, 2670]
ch0 : [2589, 2531, 2538, 2601, 2564, 2470, 2554, 2562, 2592, 2556]
ch1 : [3187, 3193, 3191, 3197, 3193, 3193, 3189, 3187, 3193, 3193]
ch2 : [1591, 1590, 1584, 1574, 1568, 1581, 1582, 1581, 1578, 1575]
ch3 : [2664, 2665, 2668, 2669, 2664, 2667, 2670, 2673, 2666, 2668]
ch0 : [2529, 2602, 2580, 2272, 2502, 2554, 2589, 2594, 2534, 2542]
ch1 : [3195, 3195, 3191, 3195, 3190, 3190, 3190, 3193, 3193, 3194]
ch2 : [1575, 1570, 1551, 1562, 1574, 1572, 1570, 1565, 1573, 1564]
ch3 : [2669, 2667, 2659, 2666, 2676, 2669, 2670, 2665, 2668, 2669]
ch0 : [2599, 2556, 2463, 2558, 2554, 2586, 2577, 2532, 2597, 2601]
ch1 : [3185, 3190, 3194, 3186, 3193, 3198, 3192, 3197, 3200, 3192]
ch2 : [1556, 1552, 1560, 1562, 1561, 1562, 1558, 1554, 1555, 1543]
ch3 : [2667, 2669, 2669, 2664, 2668, 2660, 2671, 2671, 2663, 2663]
ch0 : [2274, 2497, 2561, 2577, 2595, 2531, 2535, 2599, 2563, 2430]
ch1 : [3192, 3193, 3196, 3195, 3191, 3190, 3192, 3186, 3195, 3193]
ch2 : [1547, 1558, 1558, 1555, 1553, 1552, 1554, 1542, 1537, 1549]
ch3 : [2668, 2673, 2670, 2673, 2667, 2663, 2668, 2673, 2668, 2671]
ch0 : [2554, 2554, 2593, 2564, 2533, 2586, 2569, 2263, 2484, 2547]
ch1 : [3195, 3190, 3185, 3193, 3192, 3192, 3194, 3186, 3196, 3190]
ch2 : [1556, 1549, 1550, 1547, 1551, 1541, 1535, 1538, 1552, 1560]
ch3 : [2672, 2676, 2672, 2668, 2667, 2673, 2668, 2672, 2670, 2672]
ch0 : [2579, 2514, 2543, 2592, 2251, 2474, 2561, 2576, 2593, 2542]
ch1 : [3192, 3191, 3190, 3192, 3197, 3194, 3191, 3183, 3192, 3193]
ch2 : [1553, 1553, 1549, 1544, 1544, 1561, 1560, 1560, 1558, 1559]
ch3 : [2667, 2663, 2672, 2670, 2669, 2674, 2675, 2670, 2671, 2670]
ch0 : [2534, 2598, 2589, 2430, 2542, 2562, 2586, 2559, 2519, 2513]
ch1 : [3193, 3189, 3193, 3193, 3188, 3190, 3198, 3191, 3191, 3192]
ch2 : [1560, 1554, 1548, 1562, 1569, 1562, 1572, 1570, 1569, 1569]
ch3 : [2672, 2675, 2672, 2662, 2673, 2674, 2675, 2676, 2673, 2675]
ch0 : [2597, 2250, 2458, 2549, 2577, 2594, 2551, 2550, 2596, 2580]
ch1 : [3185, 3187, 3191, 3193, 3191, 3191, 3190, 3190, 3188, 3193]
ch2 : [1555, 1561, 1580, 1578, 1580, 1577, 1577, 1581, 1577, 1566]
ch3 : [2672, 2675, 2686, 2680, 2677, 2676, 2673, 2673, 2676, 2673]
ch0 : [2425, 2545, 2565, 2587, 2565, 2529, 2508, 2600, 2255, 2458]
ch1 : [3189, 3193, 3188, 3192, 3192, 3191, 3191, 3196, 3191, 3188]
ch2 : [1581, 1586, 1588, 1587, 1587, 1588, 1588, 1572, 1575, 1595]
ch3 : [2680, 2675, 2677, 2678, 2675, 2683, 2672, 2675, 2673, 2677]
ch0 : [2565, 2570, 2594, 2516, 2556, 2597, 2586, 2424, 2544, 2562]
ch1 : [3190, 3192, 3193, 3193, 3193, 3191, 3192, 3191, 3189, 3190]
ch2 : [1598, 1597, 1595, 1595, 1598, 1592, 1582, 1600, 1598, 1605]
ch3 : [2675, 2667, 2676, 2675, 2676, 2675, 2676, 2688, 2678, 2679]
ch0 : [2592, 2582, 2517, 2500, 2598, 2308, 2451, 2554, 2576, 2592]
ch1 : [3192, 3193, 3192, 3195, 3190, 3195, 3194, 3193, 3192, 3187]
ch2 : [1597, 1598, 1599, 1604, 1588, 1590, 1607, 1606, 1606, 1592]
ch3 : [2678, 2678, 2677, 2678, 2673, 2673, 2692, 2679, 2679, 2675]
ch0 : [2532, 2571, 2604, 2595, 2399, 2542, 2561, 2576, 2580, 2528]
ch1 : [3189, 3190, 3194, 3192, 3191, 3202, 3194, 3193, 3196, 3192]
ch2 : [1599, 1585, 1590, 1583, 1613, 1604, 1603, 1604, 1602, 1600]
ch3 : [2679, 2678, 2675, 2676, 2678, 2681, 2679, 2680, 2678, 2680]
ch0 : [2504, 2607, 2365, 2452, 2557, 2573, 2588, 2529, 2554, 2602]
ch1 : [3191, 3190, 3193, 3204, 3200, 3193, 3192, 3196, 3193, 3190]
ch2 : [1596, 1591, 1581, 1605, 1604, 1600, 1596, 1598, 1599, 1596]
ch3 : [2677, 2678, 2670, 2680, 2680, 2680, 2678, 2677, 2677, 2676]
ch0 : [2599, 2401, 2546, 2543, 2578, 2567, 2543, 2516, 2596, 2420]
ch1 : [3191, 3192, 3194, 3192, 3194, 3195, 3185, 3193, 3192, 3191]
ch2 : [1584, 1607, 1602, 1602, 1602, 1599, 1600, 1598, 1579, 1588]
ch3 : [2671, 2683, 2680, 2683, 2679, 2681, 2680, 2680, 2676, 2675]
ch0 : [2437, 2560, 2580, 2587, 2534, 2552, 2597, 2595, 2398, 2531]
ch1 : [3196, 3188, 3192, 3188, 3192, 3192, 3193, 3194, 3193, 3195]
ch2 : [1617, 1605, 1599, 1600, 1608, 1603, 1591, 1586, 1595, 1618]
ch3 : [2682, 2684, 2682, 2680, 2678, 2680, 2677, 2679, 2681, 2684]
ch0 : [2567, 2583, 2580, 2528, 2500, 2598, 2502, 2438, 2546, 2560]
ch1 : [3191, 3195, 3193, 3190, 3196, 3187, 3195, 3188, 3193, 3193]
ch2 : [1600, 1604, 1599, 1599, 1599, 1585, 1586, 1606, 1604, 1603]
ch3 : [2683, 2686, 2678, 2679, 2694, 2684, 2674, 2684, 2680, 2686]
ch0 : [2592, 2543, 2555, 2600, 2594, 2400, 2531, 2566, 2571, 2570]
ch1 : [3193, 3191, 3189, 3193, 3190, 3196, 3187, 3195, 3196, 3187]
ch2 : [1600, 1599, 1601, 1595, 1597, 1595, 1603, 1604, 1605, 1600]
ch3 : [2682, 2677, 2681, 2679, 2679, 2684, 2689, 2680, 2684, 2683]
ch0 : [2534, 2502, 2600, 2473, 2439, 2551, 2564, 2593, 2524, 2548]
ch1 : [3190, 3198, 3200, 3196, 3194, 3189, 3191, 3191, 3193, 3192]
ch2 : [1603, 1605, 1589, 1588, 1614, 1609, 1604, 1606, 1605, 1599]
ch3 : [2686, 2685, 2679, 2683, 2686, 2683, 2687, 2682, 2681, 2684]
ch0 : [2597, 2599, 2371, 2510, 2577, 2548, 2563, 2535, 2498, 2586]
ch1 : [3187, 3192, 3192, 3195, 3192, 3195, 3196, 3195, 3192, 3190]
ch2 : [1587, 1586, 1593, 1602, 1615, 1603, 1603, 1600, 1593, 1593]
ch3 : [2684, 2681, 2686, 2687, 2686, 2684, 2680, 2686, 2684, 2683]
ch0 : [2527, 2416, 2527, 2562, 2585, 2545, 2536, 2595, 2590, 2360]
ch1 : [3193, 3195, 3188, 3191, 3190, 3192, 3191, 3200, 3192, 3193]
ch2 : [1586, 1603, 1602, 1602, 1600, 1614, 1600, 1600, 1589, 1594]
ch3 : [2681, 2687, 2689, 2686, 2684, 2687, 2675, 2682, 2685, 2686]
ch0 : [2506, 2541, 2533, 2575, 2539, 2481, 2588, 2530, 2401, 2516]
ch1 : [3178, 3202, 3196, 3194, 3188, 3190, 3190, 3191, 3194, 3193]
ch2 : [1605, 1608, 1602, 1602, 1604, 1600, 1596, 1588, 1605, 1607]
ch3 : [2688, 2689, 2691, 2687, 2687, 2686, 2683, 2685, 2698, 2687]
ch0 : [2557, 2581, 2551, 2535, 2592, 2583, 2363, 2512, 2547, 2542]
ch1 : [3187, 3187, 3197, 3193, 3194, 3193, 3192, 3190, 3192, 3186]
ch2 : [1607, 1606, 1611, 1601, 1598, 1590, 1595, 1605, 1603, 1604]
ch3 : [2688, 2688, 2684, 2685, 2687, 2686, 2690, 2686, 2690, 2701]
ch0 : [2555, 2533, 2493, 2581, 2502, 2375, 2528, 2551, 2577, 2556]
ch1 : [3192, 3196, 3192, 3190, 3190, 3192, 3190, 3187, 3190, 3191]
ch2 : [1609, 1604, 1602, 1588, 1585, 1609, 1623, 1609, 1612, 1602]
ch3 : [2687, 2686, 2683, 2687, 2679, 2691, 2692, 2691, 2687, 2685]
ch0 : [2533, 2590, 2589, 2315, 2512, 2550, 2551, 2563, 2526, 2508]
ch1 : [3192, 3192, 3194, 3187, 3193, 3193, 3193, 3192, 3191, 3182]
ch2 : [1606, 1606, 1591, 1594, 1607, 1601, 1603, 1605, 1602, 1608]
ch3 : [2692, 2690, 2685, 2691, 2693, 2690, 2689, 2690, 2686, 2689]
ch0 : [2591, 2509, 2377, 2525, 2551, 2580, 2530, 2523, 2587, 2591]
ch1 : [3191, 3193, 3193, 3197, 3192, 3196, 3193, 3193, 3184, 3193]
ch2 : [1609, 1590, 1605, 1609, 1607, 1601, 1603, 1607, 1608, 1593]
ch3 : [2688, 2690, 2690, 2693, 2700, 2689, 2686, 2688, 2689, 2687]
ch0 : [2335, 2500, 2550, 2538, 2565, 2533, 2504, 2591, 2551, 2374]
ch1 : [3195, 3189, 3192, 3192, 3192, 3192, 3192, 3191, 3194, 3187]
ch2 : [1592, 1606, 1616, 1601, 1607, 1603, 1606, 1593, 1592, 1604]
ch3 : [2688, 2705, 2692, 2689, 2692, 2690, 2689, 2686, 2687, 2690]
ch0 : [2525, 2564, 2580, 2555, 2524, 2583, 2591, 2344, 2501, 2543]
ch1 : [3196, 3191, 3192, 3200, 3194, 3190, 3200, 3195, 3188, 3187]
ch2 : [1613, 1605, 1605, 1610, 1611, 1600, 1590, 1595, 1605, 1607]
ch3 : [2695, 2696, 2691, 2686, 2691, 2687, 2687, 2687, 2691, 2689]
ch0 : [2539, 2574, 2531, 2495, 2581, 2588, 2353, 2521, 2555, 2582]
ch1 : [3192, 3180, 3191, 3194, 3196, 3192, 3191, 3189, 3188, 3192]
ch2 : [1608, 1606, 1604, 1604, 1594, 1588, 1607, 1609, 1609, 1610]
ch3 : [2692, 2692, 2692, 2689, 2677, 2696, 2704, 2696, 2693, 2691]
ch0 : [2559, 2523, 2582, 2581, 2360, 2476, 2543, 2539, 2564, 2537]
ch1 : [3191, 3192, 3194, 3179, 3193, 3192, 3190, 3191, 3201, 3189]
ch2 : [1606, 1608, 1607, 1593, 1596, 1603, 1611, 1589, 1607, 1604]
ch3 : [2687, 2690, 2690, 2688, 2691, 2689, 2691, 2692, 2692, 2689]
ch0 : [2512, 2593, 2530, 2368, 2511, 2559, 2582, 2553, 2534, 2541]
ch1 : [3189, 3194, 3194, 3196, 3193, 3190, 3194, 3196, 3191, 3193]
ch2 : [1606, 1598, 1591, 1606, 1611, 1611, 1606, 1606, 1608, 1607]
ch3 : [2690, 2692, 2688, 2693, 2696, 2704, 2695, 2686, 2690, 2692]
ch0 : [2596, 2376, 2490, 2551, 2545, 2567, 2532, 2519, 2592, 2587]
ch1 : [3180, 3191, 3207, 3189, 3186, 3193, 3195, 3192, 3191, 3193]
ch2 : [1593, 1595, 1612, 1606, 1612, 1608, 1606, 1606, 1594, 1592]
ch3 : [2683, 2694, 2692, 2690, 2693, 2692, 2692, 2691, 2687, 2689]
ch0 : [2342, 2515, 2550, 2583, 2569, 2521, 2548, 2593, 2445, 2485]
ch1 : [3201, 3187, 3178, 3190, 3195, 3191, 3181, 3191, 3194, 3196]
ch2 : [1608, 1612, 1610, 1606, 1606, 1605, 1607, 1596, 1600, 1609]
ch3 : [2694, 2695, 2696, 2693, 2688, 2687, 2692, 2698, 2691, 2695]
ch0 : [2553, 2534, 2568, 2535, 2523, 2590, 2579, 2338, 2516, 2543]
ch1 : [3188, 3187, 3196, 3189, 3188, 3187, 3191, 3190, 3193, 3189]
ch2 : [1611, 1613, 1606, 1607, 1611, 1600, 1597, 1606, 1614, 1609]
ch3 : [2692, 2695, 2695, 2690, 2686, 2701, 2690, 2686, 2697, 2695]
ch0 : [2580, 2558, 2528, 2526, 2584, 2474, 2465, 2554, 2546, 2554]
ch1 : [3179, 3191, 3192, 3192, 3191, 3191, 3194, 3193, 3195, 3190]
ch2 : [1614, 1608, 1597, 1622, 1601, 1588, 1611, 1612, 1612, 1611]
ch3 : [2707, 2691, 2691, 2693, 2693, 2697, 2693, 2696, 2696, 2693]
ch0 : [2528, 2521, 2587, 2556, 2311, 2492, 2555, 2575, 2568, 2516]
ch1 : [3186, 3192, 3190, 3191, 3192, 3193, 3193, 3192, 3194, 3189]
ch2 : [1610, 1604, 1617, 1591, 1606, 1614, 1615, 1610, 1608, 1612]
ch3 : [2698, 2694, 2694, 2685, 2696, 2697, 2696, 2697, 2695, 2695]
ch0 : [2486, 2304, 2496, 2549, 2578, 2581, 2537, 2525, 2583, 2526]
ch1 : [3196, 3191, 3193, 3191, 3190, 3194, 3190, 3189, 3193, 3191]
ch2 : [1592, 1611, 1619, 1613, 1616, 1608, 1607, 1608, 1582, 1597]
ch3 : [2692, 2695, 2698, 2696, 2695, 2695, 2693, 2698, 2694, 2695]
ch0 : [2473, 2545, 2538, 2570, 2531, 2538, 2585, 2586, 2316, 2475]
ch1 : [3190, 3193, 3192, 3191, 3192, 3194, 3190, 3187, 3188, 3189]
ch2 : [1609, 1617, 1613, 1606, 1611, 1612, 1604, 1600, 1607, 1616]
ch3 : [2703, 2697, 2701, 2694, 2694, 2697, 2697, 2692, 2696, 2696]
ch0 : [2556, 2559, 2575, 2522, 2513, 2583, 2568, 2464, 2549, 2531]
ch1 : [3188, 3194, 3192, 3191, 3189, 3190, 3186, 3191, 3182, 3194]
ch2 : [1613, 1616, 1608, 1612, 1610, 1603, 1594, 1614, 1614, 1612]
ch3 : [2697, 2699, 2692, 2695, 2696, 2694, 2696, 2698, 2696, 2697]
ch0 : [2566, 2560, 2508, 2587, 2555, 2274, 2493, 2536, 2538, 2573]
ch1 : [3189, 3195, 3196, 3191, 3190, 3190, 3192, 3186, 3193, 3190]
ch2 : [1625, 1612, 1615, 1612, 1598, 1612, 1615, 1618, 1613, 1611]
ch3 : [2692, 2691, 2704, 2697, 2694, 2695, 2692, 2704, 2696, 2696]
ch0 : [2515, 2504, 2585, 2570, 2447, 2540, 2530, 2556, 2530, 2510]
ch1 : [3192, 3187, 3192, 3188, 3192, 3193, 3190, 3192, 3193, 3191]
ch2 : [1608, 1611, 1594, 1594, 1612, 1614, 1616, 1613, 1611, 1610]
ch3 : [2695, 2693, 2695, 2696, 2701, 2696, 2711, 2696, 2697, 2696]
ch0 : [2582, 2586, 2268, 2479, 2546, 2560, 2570, 2519, 2511, 2581]
ch1 : [3200, 3178, 3187, 3190, 3187, 3190, 3190, 3193, 3190, 3192]
ch2 : [1611, 1609, 1599, 1614, 1611, 1613, 1607, 1612, 1609, 1592]
ch3 : [2697, 2696, 2697, 2696, 2695, 2702, 2695, 2697, 2692, 2693]
ch0 : [2476, 2538, 2553, 2580, 2501, 2516, 2587, 2548, 2458, 2545]
ch1 : [3194, 3184, 3192, 3193, 3190, 3190, 3191, 3205, 3191, 3191]
ch2 : [1613, 1615, 1613, 1620, 1608, 1612, 1600, 1595, 1616, 1616]
ch3 : [2698, 2703, 2700, 2700, 2697, 2701, 2694, 2699, 2698, 2701]
ch0 : [2544, 2532, 2571, 2530, 2584, 2577, 2265, 2458, 2542, 2569]
ch1 : [3193, 3193, 3192, 3188, 3194, 3198, 3193, 3190, 3187, 3192]
ch2 : [1611, 1613, 1610, 1610, 1610, 1596, 1604, 1613, 1614, 1613]
ch3 : [2712, 2701, 2698, 2698, 2697, 2697, 2698, 2699, 2702, 2702]
ch0 : [2568, 2500, 2530, 2578, 2576, 2422, 2526, 2545, 2556, 2542]
ch1 : [3193, 3191, 3203, 3190, 3187, 3193, 3186, 3193, 3186, 3193]
ch2 : [1609, 1618, 1612, 1590, 1596, 1623, 1614, 1613, 1616, 1614]
ch3 : [2697, 2700, 2696, 2700, 2696, 2700, 2690, 2699, 2704, 2697]
ch0 : [2514, 2577, 2548, 2228, 2444, 2534, 2551, 2578, 2509, 2512]
ch1 : [3187, 3193, 3193, 3201, 3193, 3186, 3188, 3192, 3192, 3191]
ch2 : [1614, 1612, 1597, 1606, 1614, 1611, 1612, 1611, 1609, 1594]
ch3 : [2700, 2699, 2696, 2701, 2699, 2704, 2704, 2700, 2698, 2701]
ch0 : [2583, 2561, 2408, 2528, 2549, 2568, 2532, 2495, 2495, 2558]
ch1 : [3192, 3191, 3188, 3198, 3189, 3190, 3191, 3192, 3187, 3193]
ch2 : [1602, 1599, 1611, 1614, 1614, 1615, 1608, 1616, 1615, 1600]
ch3 : [2700, 2694, 2712, 2702, 2709, 2702, 2703, 2697, 2701, 2698]
ch0 : [2231, 2427, 2527, 2544, 2573, 2519, 2504, 2580, 2537, 2418]
ch1 : [3191, 3190, 3189, 3194, 3191, 3190, 3191, 3193, 3187, 3189]
ch2 : [1599, 1619, 1616, 1611, 1610, 1616, 1612, 1603, 1594, 1606]
ch3 : [2687, 2703, 2701, 2702, 2698, 2699, 2705, 2699, 2700, 2702]
ch0 : [2525, 2549, 2566, 2537, 2485, 2469, 2576, 2224, 2453, 2535]
ch1 : [3189, 3190, 3189, 3192, 3190, 3192, 3192, 3193, 3189, 3190]
ch2 : [1615, 1618, 1612, 1612, 1611, 1613, 1595, 1603, 1615, 1617]
ch3 : [2703, 2704, 2701, 2701, 2699, 2703, 2704, 2700, 2704, 2706]
ch0 : [2555, 2495, 2478, 2581, 2262, 2430, 2530, 2543, 2573, 2489]
ch1 : [3191, 3190, 3193, 3191, 3194, 3187, 3196, 3190, 3187, 3191]
ch2 : [1609, 1596, 1624, 1599, 1603, 1617, 1617, 1615, 1609, 1606]
ch3 : [2702, 2698, 2707, 2700, 2702, 2700, 2707, 2706, 2699, 2698]
ch0 : [2526, 2581, 2557, 2388, 2514, 2536, 2562, 2548, 2488, 2471]
ch1 : [3193, 3191, 3177, 3192, 3189, 3191, 3188, 3189, 3196, 3188]
ch2 : [1612, 1602, 1596, 1609, 1614, 1610, 1611, 1612, 1610, 1615]
ch3 : [2698, 2699, 2704, 2704, 2704, 2704, 2703, 2703, 2702, 2703]
ch0 : [2573, 2289, 2426, 2515, 2532, 2570, 2506, 2522, 2587, 2565]
ch1 : [3192, 3192, 3182, 3193, 3192, 3194, 3197, 3190, 3191, 3191]
ch2 : [1598, 1597, 1616, 1618, 1609, 1610, 1610, 1624, 1599, 1595]
ch3 : [2701, 2705, 2709, 2706, 2704, 2702, 2701, 2702, 2698, 2704]
ch0 : [2384, 2499, 2520, 2548, 2536, 2493, 2464, 2539, 2348, 2408]
ch1 : [3196, 3190, 3192, 3193, 3188, 3191, 3193, 3193, 3196, 3192]
ch2 : [1610, 1619, 1619, 1614, 1613, 1613, 1610, 1601, 1607, 1620]
ch3 : [2705, 2712, 2705, 2706, 2704, 2704, 2703, 2704, 2703, 2708]
ch0 : [2509, 2540, 2563, 2506, 2509, 2573, 2545, 2379, 2504, 2532]
ch1 : [3190, 3190, 3192, 3193, 3194, 3187, 3192, 3191, 3191, 3191]
ch2 : [1617, 1614, 1614, 1613, 1622, 1605, 1598, 1604, 1613, 1616]
ch3 : [2705, 2703, 2704, 2704, 2703, 2706, 2699, 2708, 2706, 2706]
ch0 : [2547, 2547, 2500, 2463, 2550, 2411, 2406, 2511, 2537, 2563]
ch1 : [3201, 3192, 3193, 3191, 3183, 3194, 3188, 3193, 3191, 3192]
ch2 : [1611, 1618, 1627, 1617, 1595, 1597, 1611, 1616, 1615, 1619]
ch3 : [2692, 2703, 2705, 2705, 2702, 2704, 2706, 2714, 2706, 2705]
ch0 : [2506, 2528, 2574, 2577, 2363, 2508, 2524, 2545, 2542, 2492]
ch1 : [3192, 3192, 3186, 3189, 3188, 3193, 3195, 3191, 3192, 3194]
ch2 : [1611, 1607, 1610, 1598, 1612, 1615, 1616, 1614, 1610, 1611]
ch3 : [2704, 2704, 2694, 2706, 2706, 2708, 2707, 2703, 2702, 2705]
ch0 : [2539, 2362, 2483, 2523, 2551, 2534, 2504, 2460, 2572, 2441]
ch1 : [3192, 3191, 3195, 3202, 3195, 3185, 3190, 3191, 3193, 3193]
ch2 : [1603, 1608, 1618, 1617, 1632, 1609, 1617, 1608, 1602, 1598]
ch3 : [2695, 2708, 2710, 2710, 2708, 2707, 2706, 2706, 2701, 2693]
ch0 : [2397, 2507, 2543, 2569, 2516, 2518, 2573, 2577, 2333, 2491]
ch1 : [3190, 3191, 3191, 3185, 3191, 3190, 3187, 3190, 3192, 3186]
ch2 : [1613, 1619, 1617, 1608, 1613, 1615, 1609, 1602, 1608, 1632]
ch3 : [2696, 2711, 2711, 2703, 2708, 2706, 2704, 2706, 2708, 2711]
ch0 : [2526, 2532, 2554, 2510, 2469, 2586, 2533, 2385, 2508, 2537]
ch1 : [3189, 3191, 3183, 3192, 3191, 3192, 3189, 3188, 3189, 3194]
ch2 : [1616, 1615, 1614, 1612, 1613, 1605, 1593, 1614, 1616, 1615]
ch3 : [2707, 2707, 2708, 2705, 2708, 2708, 2708, 2708, 2713, 2723]
ch0 : [2563, 2528, 2517, 2569, 2575, 2335, 2481, 2527, 2527, 2550]
ch1 : [3190, 3193, 3193, 3196, 3205, 3195, 3190, 3191, 3190, 3190]
ch2 : [1609, 1605, 1611, 1607, 1599, 1603, 1614, 1617, 1609, 1607]
ch3 : [2707, 2709, 2706, 2712, 2705, 2706, 2709, 2711, 2718, 2708]
ch0 : [2508, 2473, 2570, 2520, 2375, 2515, 2541, 2569, 2521, 2525]
ch1 : [3184, 3190, 3192, 3195, 3196, 3196, 3193, 3188, 3187, 3190]
ch2 : [1613, 1614, 1604, 1596, 1617, 1616, 1625, 1614, 1601, 1611]
ch3 : [2703, 2711, 2708, 2709, 2708, 2709, 2712, 2704, 2706, 2709]
ch0 : [2568, 2570, 2347, 2483, 2537, 2520, 2545, 2502, 2481, 2574]
ch1 : [3187, 3201, 3190, 3195, 3188, 3193, 3193, 3195, 3191, 3200]
ch2 : [1610, 1599, 1609, 1614, 1614, 1614, 1612, 1612, 1612, 1604]
ch3 : [2703, 2711, 2712, 2712, 2712, 2710, 2708, 2708, 2706, 2705]
ch0 : [2536, 2378, 2500, 2532, 2567, 2527, 2515, 2574, 2576, 2327]
ch1 : [3188, 3178, 3192, 3204, 3189, 3197, 3190, 3201, 3192, 3194]
ch2 : [1599, 1615, 1617, 1615, 1615, 1614, 1612, 1611, 1593, 1607]
ch3 : [2710, 2696, 2711, 2712, 2709, 2707, 2706, 2709, 2709, 2720]
ch0 : [2488, 2536, 2528, 2554, 2500, 2471, 2576, 2488, 2368, 2509]
ch1 : [3190, 3190, 3192, 3192, 3193, 3180, 3191, 3192, 3193, 3193]
ch2 : [1602, 1633, 1609, 1609, 1612, 1617, 1604, 1597, 1614, 1619]
ch3 : [2709, 2711, 2710, 2707, 2708, 2709, 2709, 2705, 2721, 2712]
ch0 : [2532, 2569, 2535, 2525, 2574, 2576, 2327, 2480, 2533, 2516]
ch1 : [3189, 3191, 3195, 3194, 3193, 3193, 3193, 3191, 3189, 3196]
ch2 : [1611, 1612, 1611, 1611, 1611, 1601, 1604, 1621, 1616, 1617]
ch3 : [2707, 2704, 2712, 2720, 2709, 2706, 2707, 2711, 2712, 2701]
ch0 : [2568, 2513, 2487, 2574, 2503, 2348, 2503, 2531, 2572, 2518]
ch1 : [3192, 3189, 3193, 3191, 3189, 3191, 3192, 3192, 3191, 3193]
ch2 : [1618, 1615, 1613, 1604, 1595, 1610, 1620, 1614, 1615, 1613]
ch3 : [2720, 2712, 2711, 2709, 2706, 2713, 2711, 2711, 2708, 2709]
ch0 : [2498, 2569, 2576, 2305, 2476, 2523, 2520, 2541, 2498, 2477]
ch1 : [3193, 3191, 3191, 3195, 3194, 3193, 3187, 3190, 3191, 3194]
ch2 : [1612, 1613, 1605, 1605, 1619, 1617, 1611, 1629, 1610, 1615]
ch3 : [2709, 2716, 2706, 2704, 2708, 2710, 2710, 2707, 2710, 2720]
ch0 : [2576, 2490, 2333, 2497, 2530, 2567, 2522, 2510, 2567, 2576]
ch1 : [3191, 3188, 3193, 3192, 3179, 3191, 3190, 3193, 3193, 3192]
ch2 : [1611, 1602, 1610, 1619, 1618, 1617, 1617, 1616, 1615, 1599]
ch3 : [2713, 2706, 2710, 2713, 2727, 2709, 2711, 2708, 2714, 2708]
ch0 : [2321, 2477, 2524, 2513, 2548, 2494, 2488, 2575, 2488, 2321]
ch1 : [3183, 3191, 3186, 3189, 3192, 3193, 3193, 3193, 3191, 3189]
ch2 : [1604, 1619, 1614, 1617, 1616, 1615, 1613, 1605, 1599, 1613]
ch3 : [2710, 2711, 2710, 2712, 2711, 2714, 2710, 2705, 2703, 2711]
ch0 : [2484, 2520, 2551, 2539, 2491, 2533, 2572, 2363, 2462, 2519]
ch1 : [3191, 3193, 3192, 3189, 3191, 3195, 3194, 3189, 3194, 3184]
ch2 : [1622, 1618, 1616, 1613, 1613, 1615, 1603, 1604, 1621, 1620]
ch3 : [2719, 2715, 2709, 2710, 2712, 2711, 2711, 2705, 2715, 2712]
ch0 : [2511, 2552, 2499, 2500, 2576, 2555, 2315, 2482, 2523, 2576]
ch1 : [3192, 3191, 3191, 3196, 3191, 3190, 3191, 3199, 3191, 3194]
ch2 : [1619, 1614, 1615, 1615, 1606, 1598, 1615, 1620, 1623, 1616]
ch3 : [2713, 2715, 2712, 2710, 2711, 2704, 2713, 2716, 2700, 2713]
ch0 : [2527, 2498, 2519, 2563, 2404, 2478, 2520, 2502, 2541, 2490]
ch1 : [3185, 3188, 3189, 3192, 3193, 3187, 3188, 3192, 3191, 3194]
ch2 : [1613, 1615, 1611, 1601, 1602, 1617, 1617, 1612, 1616, 1630]
ch3 : [2708, 2709, 2712, 2712, 2713, 2700, 2717, 2711, 2715, 2711]
ch0 : [2501, 2573, 2520, 2309, 2475, 2520, 2562, 2539, 2486, 2509]
ch1 : [3191, 3192, 3191, 3194, 3191, 3192, 3191, 3192, 3193, 3191]
ch2 : [1617, 1613, 1598, 1612, 1618, 1618, 1617, 1614, 1614, 1614]
ch3 : [2703, 2713, 2710, 2712, 2711, 2714, 2697, 2706, 2710, 2712]
ch0 : [2569, 2469, 2449, 2521, 2514, 2548, 2498, 2508, 2567, 2554]
ch1 : [3186, 3190, 3188, 3176, 3183, 3190, 3192, 3193, 3190, 3186]
ch2 : [1604, 1603, 1617, 1621, 1616, 1617, 1615, 1618, 1610, 1610]
ch3 : [2711, 2698, 2711, 2716, 2714, 2713, 2721, 2712, 2710, 2710]
ch0 : [2295, 2488, 2515, 2564, 2533, 2510, 2482, 2568, 2490, 2443]
ch1 : [3178, 3193, 3187, 3191, 3193, 3192, 3205, 3187, 3194, 3187]
ch2 : [1613, 1621, 1619, 1616, 1626, 1618, 1615, 1602, 1602, 1616]
ch3 : [2698, 2718, 2716, 2717, 2709, 2711, 2714, 2706, 2716, 2717]
ch0 : [2511, 2519, 2531, 2528, 2501, 2568, 2538, 2271, 2474, 2513]
ch1 : [3191, 3191, 3190, 3194, 3190, 3192, 3193, 3190, 3188, 3186]
ch2 : [1619, 1614, 1616, 1611, 1609, 1608, 1599, 1608, 1614, 1629]
ch3 : [2708, 2713, 2714, 2712, 2714, 2714, 2712, 2714, 2716, 2716]
ch0 : [2544, 2557, 2493, 2481, 2560, 2503, 2439, 2513, 2509, 2536]
ch1 : [3189, 3188, 3194, 3191, 3191, 3192, 3193, 3193, 3194, 3192]
ch2 : [1619, 1613, 1613, 1617, 1603, 1602, 1615, 1617, 1619, 1617]
ch3 : [2717, 2713, 2720, 2715, 2713, 2712, 2718, 2717, 2717, 2717]
ch0 : [2509, 2510, 2566, 2560, 2261, 2466, 2513, 2534, 2538, 2478]
ch1 : [3189, 3190, 3192, 3193, 3184, 3187, 3194, 3186, 3185, 3190]
ch2 : [1619, 1614, 1605, 1598, 1613, 1630, 1618, 1614, 1614, 1616]
ch3 : [2718, 2706, 2715, 2711, 2715, 2720, 2718, 2729, 2713, 2716]
ch0 : [2474, 2563, 2553, 2424, 2493, 2505, 2538, 2508, 2516, 2569]
ch1 : [3189, 3189, 3185, 3191, 3195, 3192, 3191, 3184, 3193, 3191]
ch2 : [1610, 1608, 1604, 1616, 1618, 1615, 1620, 1625, 1614, 1613]
ch3 : [2709, 2711, 2714, 2718, 2716, 2715, 2718, 2713, 2709, 2719]
ch0 : [2547, 2257, 2451, 2517, 2511, 2530, 2470, 2470, 2563, 2549]
ch1 : [3190, 3193, 3191, 3186, 3193, 3187, 3194, 3190, 3187, 3191]
ch2 : [1600, 1610, 1624, 1616, 1616, 1616, 1614, 1617, 1604, 1601]
ch3 : [2724, 2714, 2720, 2721, 2717, 2718, 2719, 2718, 2715, 2720]
ch0 : [2408, 2509, 2499, 2529, 2511, 2495, 2562, 2564, 2224, 2450]
ch1 : [3189, 3189, 3192, 3192, 3196, 3192, 3191, 3195, 3191, 3194]
ch2 : [1615, 1612, 1611, 1616, 1614, 1600, 1612, 1598, 1611, 1618]
ch3 : [2718, 2718, 2720, 2720, 2717, 2716, 2721, 2709, 2718, 2723]
ch0 : [2506, 2517, 2555, 2479, 2477, 2568, 2554, 2409, 2495, 2495]
ch1 : [3193, 3187, 3189, 3191, 3188, 3190, 3189, 3193, 3188, 3188]
ch2 : [1620, 1620, 1615, 1611, 1611, 1607, 1598, 1617, 1622, 1620]
ch3 : [2720, 2719, 2712, 2716, 2717, 2714, 2720, 2718, 2720, 2717]
ch0 : [2530, 2506, 2482, 2561, 2542, 2212, 2460, 2495, 2526, 2538]
ch1 : [3191, 3189, 3195, 3192, 3200, 3192, 3191, 3192, 3193, 3194]
ch2 : [1616, 1616, 1614, 1617, 1595, 1625, 1620, 1615, 1620, 1610]
ch3 : [2719, 2722, 2716, 2718, 2716, 2715, 2717, 2721, 2720, 2718]
ch0 : [2481, 2469, 2557, 2548, 2402, 2506, 2499, 2536, 2518, 2488]
ch1 : [3194, 3192, 3186, 3193, 3190, 3193, 3178, 3187, 3190, 3192]
ch2 : [1612, 1618, 1604, 1604, 1620, 1622, 1623, 1618, 1621, 1615]
ch3 : [2718, 2720, 2705, 2715, 2732, 2718, 2722, 2718, 2717, 2727]
ch0 : [2570, 2562, 2208, 2432, 2491, 2510, 2544, 2471, 2471, 2557]
ch1 : [3195, 3189, 3204, 3188, 3187, 3189, 3186, 3190, 3186, 3191]
ch2 : [1616, 1599, 1603, 1620, 1616, 1613, 1616, 1614, 1614, 1597]
ch3 : [2724, 2718, 2711, 2719, 2721, 2722, 2716, 2711, 2715, 2715]
ch0 : [2425, 2487, 2509, 2535, 2482, 2484, 2556, 2540, 2381, 2486]
ch1 : [3194, 3190, 3190, 3189, 3195, 3186, 3193, 3193, 3181, 3189]
ch2 : [1611, 1608, 1608, 1608, 1607, 1614, 1600, 1594, 1608, 1610]
ch3 : [2719, 2718, 2719, 2715, 2717, 2719, 2717, 2720, 2714, 2719]
ch0 : [2490, 2544, 2507, 2444, 2438, 2540, 2183, 2411, 2478, 2502]
ch1 : [3193, 3190, 3188, 3190, 3193, 3200, 3192, 3190, 3192, 3193]
ch2 : [1609, 1612, 1616, 1614, 1612, 1587, 1595, 1603, 1611, 1612]
ch3 : [2722, 2716, 2723, 2714, 2721, 2717, 2722, 2724, 2722, 2720]
ch0 : [2535, 2462, 2486, 2549, 2526, 2366, 2476, 2497, 2523, 2502]
ch1 : [3184, 3191, 3194, 3188, 3194, 3193, 3191, 3189, 3188, 3193]
ch2 : [1607, 1598, 1605, 1594, 1592, 1601, 1607, 1604, 1602, 1599]
ch3 : [2709, 2707, 2714, 2714, 2715, 2714, 2727, 2721, 2716, 2716]
ch0 : [2467, 2440, 2544, 2214, 2417, 2494, 2514, 2542, 2478, 2491]
ch1 : [3192, 3194, 3189, 3195, 3191, 3192, 3190, 3192, 3190, 3192]
ch2 : [1593, 1593, 1585, 1587, 1600, 1594, 1593, 1589, 1584, 1591]
ch3 : [2717, 2715, 2713, 2712, 2723, 2719, 2721, 2719, 2712, 2718]
ch0 : [2551, 2496, 2378, 2486, 2508, 2545, 2525, 2466, 2443, 2546]
ch1 : [3190, 3193, 3194, 3201, 3196, 3191, 3191, 3205, 3191, 3195]
ch2 : [1582, 1572, 1579, 1582, 1579, 1580, 1581, 1578, 1576, 1562]
ch3 : [2718, 2715, 2718, 2721, 2717, 2719, 2720, 2715, 2714, 2717]
ch0 : [2284, 2412, 2484, 2526, 2542, 2471, 2504, 2559, 2563, 2346]
ch1 : [3191, 3198, 3206, 3190, 3189, 3195, 3190, 3187, 3196, 3197]
ch2 : [1558, 1571, 1571, 1566, 1565, 1565, 1564, 1558, 1553, 1556]
ch3 : [2712, 2718, 2721, 2720, 2720, 2714, 2717, 2715, 2714, 2718]
ch0 : [2476, 2510, 2535, 2527, 2490, 2438, 2561, 2322, 2414, 2493]
ch1 : [3191, 3193, 3194, 3200, 3192, 3193, 3195, 3192, 3195, 3195]
ch2 : [1564, 1564, 1555, 1554, 1550, 1545, 1535, 1534, 1552, 1549]
ch3 : [2721, 2719, 2720, 2718, 2722, 2719, 2715, 2721, 2717, 2724]
ch0 : [2512, 2545, 2502, 2495, 2557, 2550, 2368, 2476, 2512, 2537]
ch1 : [3192, 3187, 3200, 3195, 3182, 3192, 3196, 3193, 3200, 3193]
ch2 : [1541, 1540, 1543, 1538, 1530, 1526, 1533, 1537, 1536, 1532]
ch3 : [2718, 2717, 2718, 2718, 2717, 2713, 2711, 2718, 2718, 2714]
ch0 : [2528, 2479, 2440, 2559, 2353, 2396, 2493, 2511, 2550, 2474]
ch1 : [3189, 3194, 3194, 3198, 3199, 3192, 3192, 3196, 3187, 3197]
ch2 : [1530, 1529, 1527, 1512, 1510, 1523, 1524, 1522, 1510, 1514]
ch3 : [2716, 2715, 2714, 2712, 2713, 2718, 2717, 2716, 2717, 2703]
ch0 : [2489, 2567, 2558, 2342, 2477, 2507, 2525, 2525, 2484, 2440]
ch1 : [3188, 3194, 3192, 3193, 3197, 3187, 3195, 3190, 3200, 3200]
ch2 : [1510, 1509, 1488, 1509, 1510, 1510, 1506, 1504, 1508, 1502]
ch3 : [2713, 2713, 2712, 2715, 2717, 2716, 2717, 2714, 2714, 2717]
ch0 : [2560, 2404, 2377, 2486, 2519, 2555, 2487, 2502, 2558, 2554]
ch1 : [3194, 3193, 3193, 3187, 3192, 3191, 3192, 3196, 3190, 3192]
ch2 : [1488, 1481, 1499, 1496, 1495, 1497, 1493, 1493, 1486, 1479]
ch3 : [2714, 2713, 2716, 2719, 2717, 2714, 2713, 2714, 2716, 2716]
ch0 : [2325, 2470, 2491, 2521, 2517, 2461, 2424, 2494, 2442, 2367]
ch1 : [3197, 3200, 3193, 3193, 3195, 3192, 3190, 3193, 3193, 3196]
ch2 : [1474, 1489, 1488, 1486, 1490, 1478, 1481, 1469, 1463, 1484]
ch3 : [2714, 2717, 2717, 2711, 2712, 2712, 2715, 2716, 2713, 2713]
ch0 : [2487, 2494, 2548, 2496, 2494, 2558, 2554, 2307, 2451, 2492]
ch1 : [3190, 3192, 3192, 3194, 3193, 3191, 3191, 3197, 3193, 3191]
ch2 : [1481, 1468, 1476, 1472, 1475, 1468, 1461, 1462, 1475, 1477]
ch3 : [2717, 2716, 2714, 2714, 2714, 2714, 2725, 2716, 2715, 2716]
ch0 : [2499, 2509, 2471, 2428, 2550, 2499, 2353, 2505, 2496, 2545]
ch1 : [3191, 3191, 3195, 3191, 3188, 3192, 3192, 3185, 3191, 3191]
ch2 : [1472, 1471, 1472, 1471, 1456, 1451, 1470, 1473, 1473, 1471]
ch3 : [2715, 2715, 2715, 2715, 2708, 2712, 2714, 2721, 2717, 2716]
ch0 : [2482, 2488, 2552, 2540, 2304, 2455, 2500, 2478, 2514, 2470]
ch1 : [3193, 3206, 3196, 3189, 3190, 3193, 3193, 3188, 3196, 3197]
ch2 : [1469, 1471, 1467, 1454, 1464, 1475, 1475, 1476, 1474, 1475]
ch3 : [2719, 2717, 2722, 2712, 2716, 2719, 2716, 2716, 2716, 2710]
ch0 : [2419, 2551, 2514, 2342, 2473, 2487, 2546, 2490, 2470, 2549]
ch1 : [3192, 3192, 3193, 3192, 3191, 3190, 3195, 3191, 3192, 3193]
ch2 : [1478, 1458, 1459, 1479, 1484, 1480, 1479, 1479, 1488, 1478]
ch3 : [2715, 2714, 2714, 2720, 2720, 2718, 2705, 2716, 2720, 2718]
ch0 : [2546, 2306, 2458, 2491, 2476, 2506, 2448, 2439, 2553, 2481]
ch1 : [3193, 3202, 3196, 3196, 3189, 3192, 3192, 3186, 3191, 3187]
ch2 : [1469, 1479, 1483, 1490, 1489, 1489, 1495, 1491, 1478, 1474]
ch3 : [2715, 2717, 2722, 2721, 2721, 2717, 2721, 2717, 2714, 2717]
ch0 : [2331, 2467, 2494, 2537, 2466, 2475, 2546, 2546, 2285, 2444]
ch1 : [3198, 3193, 3191, 3187, 3196, 3193, 3195, 3195, 3192, 3197]
ch2 : [1496, 1498, 1499, 1496, 1495, 1496, 1498, 1488, 1496, 1506]
ch3 : [2720, 2719, 2722, 2723, 2718, 2715, 2720, 2721, 2721, 2718]
ch0 : [2484, 2486, 2523, 2459, 2442, 2548, 2482, 2313, 2468, 2501]
ch1 : [3195, 3200, 3193, 3194, 3195, 3193, 3196, 3195, 3196, 3191]
ch2 : [1507, 1509, 1508, 1505, 1509, 1490, 1495, 1512, 1518, 1522]
ch3 : [2723, 2717, 2722, 2722, 2724, 2720, 2718, 2723, 2721, 2723]
ch0 : [2549, 2500, 2447, 2550, 2546, 2279, 2441, 2476, 2475, 2504]
ch1 : [3190, 3192, 3192, 3190, 3186, 3195, 3193, 3196, 3194, 3195]
ch2 : [1516, 1516, 1511, 1521, 1506, 1511, 1519, 1527, 1524, 1531]
ch3 : [2719, 2721, 2724, 2722, 2719, 2719, 2715, 2732, 2723, 2725]
ch0 : [2466, 2436, 2546, 2478, 2307, 2445, 2491, 2541, 2492, 2473]
ch1 : [3194, 3194, 3193, 3192, 3196, 3193, 3196, 3192, 3191, 3194]
ch2 : [1524, 1525, 1516, 1513, 1526, 1531, 1534, 1528, 1525, 1528]
ch3 : [2722, 2722, 2722, 2721, 2724, 2728, 2724, 2722, 2723, 2717]
ch0 : [2523, 2293, 2461, 2492, 2536, 2467, 2466, 2533, 2525, 2296]
ch1 : [3183, 3194, 3193, 3191, 3193, 3193, 3197, 3193, 3187, 3191]
ch2 : [1521, 1530, 1537, 1535, 1531, 1532, 1527, 1531, 1519, 1527]
ch3 : [2721, 2729, 2728, 2727, 2724, 2721, 2722, 2723, 2721, 2722]
ch0 : [2431, 2483, 2480, 2509, 2460, 2451, 2544, 2528, 2293, 2456]
ch1 : [3191, 3195, 3197, 3190, 3192, 3201, 3192, 3191, 3190, 3196]
ch2 : [1529, 1538, 1535, 1535, 1534, 1536, 1531, 1518, 1535, 1540]
ch3 : [2727, 2720, 2725, 2722, 2725, 2724, 2726, 2719, 2721, 2732]
ch0 : [2486, 2540, 2484, 2475, 2502, 2540, 2317, 2434, 2494, 2471]
ch1 : [3191, 3194, 3194, 3189, 3191, 3185, 3193, 3191, 3189, 3194]
ch2 : [1537, 1536, 1535, 1535, 1540, 1524, 1524, 1539, 1541, 1541]
ch3 : [2727, 2730, 2723, 2721, 2719, 2732, 2723, 2723, 2727, 2728]
ch0 : [2507, 2471, 2458, 2550, 2453, 2293, 2454, 2485, 2539, 2514]
ch1 : [3188, 3192, 3192, 3191, 3191, 3187, 3195, 3191, 3192, 3196]
ch2 : [1539, 1539, 1538, 1531, 1524, 1539, 1545, 1541, 1547, 1542]
ch3 : [2728, 2729, 2729, 2729, 2716, 2726, 2732, 2728, 2728, 2723]
ch0 : [2458, 2480, 2545, 2370, 2429, 2492, 2486, 2508, 2477, 2480]
ch1 : [3206, 3193, 3191, 3195, 3187, 3195, 3192, 3195, 3189, 3192]
ch2 : [1539, 1535, 1531, 1534, 1544, 1546, 1548, 1544, 1548, 1541]
ch3 : [2725, 2723, 2718, 2723, 2725, 2727, 2728, 2726, 2726, 2722]
ch0 : [2562, 2489, 2281, 2463, 2489, 2545, 2510, 2464, 2479, 2538]
ch1 : [3191, 3189, 3197, 3187, 3188, 3189, 3203, 3190, 3191, 3191]
ch2 : [1535, 1528, 1546, 1547, 1551, 1546, 1544, 1542, 1548, 1536]
ch3 : [2724, 2721, 2728, 2733, 2728, 2725, 2732, 2725, 2724, 2729]
ch0 : [2409, 2431, 2481, 2476, 2505, 2467, 2471, 2547, 2532, 2256]
ch1 : [3195, 3193, 3194, 3190, 3193, 3192, 3194, 3187, 3195, 3196]
ch2 : [1527, 1541, 1549, 1550, 1548, 1556, 1545, 1538, 1526, 1546]
ch3 : [2725, 2720, 2724, 2729, 2723, 2728, 2728, 2730, 2723, 2726]
ch0 : [2452, 2499, 2538, 2496, 2456, 2467, 2547, 2428, 2415, 2494]
ch1 : [3193, 3186, 3187, 3192, 3189, 3187, 3197, 3193, 3194, 3191]
ch2 : [1546, 1550, 1546, 1546, 1545, 1546, 1537, 1533, 1549, 1546]
ch3 : [2728, 2731, 2729, 2730, 2729, 2730, 2727, 2728, 2728, 2728]
ch0 : [2482, 2510, 2480, 2479, 2551, 2494, 2262, 2445, 2496, 2539]
ch1 : [3193, 3193, 3193, 3194, 3196, 3190, 3190, 3195, 3193, 3193]
ch2 : [1551, 1548, 1551, 1548, 1544, 1526, 1544, 1552, 1533, 1550]
ch3 : [2730, 2731, 2728, 2728, 2726, 2724, 2729, 2733, 2731, 2727]
ch0 : [2504, 2459, 2460, 2547, 2443, 2406, 2498, 2472, 2511, 2471]
ch1 : [3193, 3201, 3191, 3195, 3178, 3190, 3191, 3193, 3195, 3190]
ch2 : [1547, 1547, 1547, 1537, 1537, 1546, 1555, 1551, 1552, 1552]
ch3 : [2724, 2727, 2730, 2737, 2728, 2730, 2732, 2729, 2729, 2733]
ch0 : [2529, 2496, 2406, 2486, 2465, 2511, 2469, 2484, 2543, 2487]
ch1 : [3191, 3195, 3195, 3203, 3193, 3200, 3191, 3193, 3193, 3197]
ch2 : [1544, 1535, 1553, 1558, 1552, 1554, 1541, 1549, 1547, 1537]
ch3 : [2730, 2724, 2727, 2731, 2727, 2731, 2728, 2731, 2731, 2728]
ch0 : [2236, 2457, 2468, 2497, 2526, 2459, 2448, 2545, 2493, 2397]
ch1 : [3194, 3188, 3190, 3193, 3201, 3191, 3194, 3189, 3193, 3192]
ch2 : [1548, 1557, 1551, 1553, 1553, 1552, 1552, 1541, 1540, 1553]
ch3 : [2733, 2733, 2732, 2733, 2730, 2729, 2730, 2728, 2729, 2731]
ch0 : [2484, 2486, 2509, 2488, 2482, 2543, 2531, 2217, 2439, 2479]
ch1 : [3196, 3190, 3194, 3191, 3197, 3198, 3194, 3194, 3191, 3195]
ch2 : [1560, 1557, 1555, 1557, 1554, 1549, 1539, 1552, 1561, 1559]
ch3 : [2735, 2732, 2731, 2728, 2728, 2733, 2729, 2732, 2733, 2736]
ch0 : [2497, 2527, 2461, 2457, 2548, 2540, 2390, 2487, 2476, 2515]
ch1 : [3189, 3187, 3187, 3194, 3194, 3190, 3205, 3188, 3190, 3190]
ch2 : [1556, 1554, 1556, 1540, 1541, 1545, 1555, 1561, 1554, 1558]
ch3 : [2733, 2730, 2729, 2729, 2727, 2729, 2731, 2732, 2730, 2731]
ch0 : [2484, 2456, 2543, 2522, 2224, 2427, 2487, 2499, 2511, 2465]
ch1 : [3192, 3193, 3190, 3190, 3190, 3196, 3187, 3194, 3187, 3195]
ch2 : [1557, 1542, 1551, 1546, 1550, 1566, 1560, 1559, 1546, 1558]
ch3 : [2728, 2732, 2740, 2734, 2729, 2736, 2736, 2732, 2733, 2730]
ch0 : [2459, 2550, 2517, 2391, 2482, 2493, 2498, 2506, 2460, 2543]
ch1 : [3194, 3192, 3195, 3197, 3196, 3189, 3194, 3191, 3191, 3196]
ch2 : [1556, 1558, 1549, 1557, 1565, 1564, 1559, 1558, 1558, 1558]
ch3 : [2730, 2732, 2732, 2732, 2733, 2732, 2732, 2730, 2736, 2732]
ch0 : [2486, 2185, 2420, 2486, 2497, 2525, 2459, 2457, 2546, 2541]
ch1 : [3192, 3198, 3192, 3197, 3188, 3191, 3196, 3193, 3198, 3192]
ch2 : [1545, 1552, 1565, 1565, 1564, 1559, 1559, 1560, 1547, 1546]
ch3 : [2728, 2732, 2734, 2735, 2727, 2729, 2731, 2732, 2730, 2731]
ch0 : [2395, 2473, 2486, 2512, 2494, 2441, 2543, 2532, 2186, 2415]
ch1 : [3193, 3191, 3194, 3191, 3191, 3195, 3194, 3197, 3194, 3191]
ch2 : [1561, 1559, 1564, 1558, 1564, 1559, 1561, 1543, 1554, 1560]
ch3 : [2729, 2742, 2731, 2727, 2731, 2732, 2733, 2728, 2729, 2734]
ch0 : [2482, 2493, 2528, 2457, 2463, 2543, 2519, 2362, 2471, 2480]
ch1 : [3194, 3188, 3188, 3192, 3204, 3186, 3207, 3198, 3197, 3197]
ch2 : [1565, 1559, 1560, 1558, 1560, 1550, 1548, 1562, 1565, 1563]
ch3 : [2736, 2734, 2727, 2729, 2733, 2736, 2736, 2734, 2733, 2736]
ch0 : [2498, 2499, 2445, 2539, 2537, 2191, 2402, 2493, 2489, 2530]
ch1 : [3195, 3191, 3196, 3192, 3192, 3195, 3200, 3193, 3192, 3192]
ch2 : [1562, 1556, 1558, 1560, 1545, 1553, 1574, 1566, 1562, 1562]
ch3 : [2737, 2732, 2733, 2734, 2733, 2732, 2740, 2737, 2736, 2732]
ch0 : [2463, 2552, 2163, 2397, 2482, 2489, 2518, 2472, 2462, 2541]
ch1 : [3192, 3191, 3193, 3194, 3194, 3190, 3191, 3187, 3200, 3187]
ch2 : [1561, 1547, 1552, 1567, 1571, 1565, 1564, 1560, 1581, 1552]
ch3 : [2735, 2730, 2741, 2737, 2742, 2734, 2733, 2733, 2734, 2734]
ch0 : [2536, 2359, 2470, 2487, 2500, 2495, 2437, 2423, 2517, 2161]
ch1 : [3190, 3193, 3195, 3192, 3202, 3192, 3193, 3192, 3204, 3192]
ch2 : [1543, 1561, 1562, 1565, 1560, 1562, 1563, 1562, 1553, 1551]
ch3 : [2725, 2736, 2734, 2735, 2734, 2733, 2725, 2736, 2735, 2731]
ch0 : [2399, 2466, 2511, 2520, 2460, 2473, 2542, 2518, 2353, 2467]
ch1 : [3194, 3188, 3200, 3188, 3194, 3192, 3193, 3193, 3194, 3192]
ch2 : [1564, 1569, 1565, 1563, 1558, 1562, 1554, 1548, 1560, 1564]
ch3 : [2734, 2737, 2743, 2741, 2734, 2736, 2735, 2734, 2737, 2740]
ch0 : [2479, 2515, 2503, 2439, 2415, 2542, 2182, 2390, 2467, 2486]
ch1 : [3192, 3194, 3185, 3196, 3187, 3188, 3196, 3193, 3197, 3200]
ch2 : [1572, 1569, 1564, 1564, 1564, 1548, 1557, 1567, 1570, 1567]
ch3 : [2732, 2738, 2737, 2735, 2741, 2740, 2734, 2740, 2740, 2738]
ch0 : [2535, 2466, 2455, 2537, 2522, 2343, 2467, 2482, 2507, 2481]
ch1 : [3189, 3193, 3187, 3194, 3190, 3192, 3190, 3192, 3196, 3193]
ch2 : [1564, 1562, 1565, 1558, 1555, 1558, 1572, 1568, 1571, 1567]
ch3 : [2735, 2733, 2735, 2737, 2734, 2736, 2737, 2740, 2738, 2734]
ch0 : [2444, 2411, 2518, 2224, 2384, 2461, 2499, 2523, 2452, 2471]
ch1 : [3194, 3193, 3193, 3192, 3188, 3201, 3193, 3192, 3192, 3195]
ch2 : [1569, 1566, 1554, 1559, 1575, 1572, 1569, 1567, 1564, 1566]
ch3 : [2732, 2734, 2731, 2732, 2741, 2741, 2739, 2736, 2737, 2733]
ch0 : [2537, 2533, 2326, 2458, 2483, 2501, 2501, 2443, 2415, 2536]
ch1 : [3195, 3191, 3194, 3188, 3187, 3191, 3191, 3191, 3194, 3181]
ch2 : [1562, 1553, 1568, 1568, 1569, 1568, 1572, 1568, 1568, 1552]
ch3 : [2737, 2740, 2737, 2738, 2740, 2735, 2735, 2737, 2739, 2735]
ch0 : [2286, 2374, 2468, 2491, 2532, 2444, 2469, 2535, 2529, 2317]
ch1 : [3189, 3198, 3191, 3193, 3191, 3195, 3189, 3192, 3198, 3209]
ch2 : [1566, 1571, 1570, 1570, 1562, 1565, 1569, 1557, 1553, 1564]
ch3 : [2734, 2745, 2739, 2735, 2732, 2735, 2726, 2736, 2737, 2737]
ch0 : [2458, 2488, 2502, 2492, 2458, 2411, 2536, 2366, 2368, 2455]
ch1 : [3193, 3188, 3194, 3196, 3196, 3187, 3195, 3194, 3195, 3196]
ch2 : [1553, 1571, 1565, 1568, 1567, 1570, 1556, 1556, 1572, 1572]
ch3 : [2741, 2734, 2744, 2729, 2740, 2739, 2733, 2727, 2737, 2741]
ch0 : [2499, 2521, 2462, 2482, 2539, 2543, 2309, 2458, 2481, 2508]
ch1 : [3189, 3195, 3193, 3193, 3190, 3189, 3200, 3193, 3194, 3191]
ch2 : [1568, 1568, 1567, 1563, 1563, 1553, 1563, 1572, 1573, 1566]
ch3 : [2741, 2738, 2732, 2737, 2738, 2731, 2739, 2741, 2735, 2736]
ch0 : [2487, 2448, 2399, 2495, 2393, 2363, 2455, 2485, 2519, 2461]
ch1 : [3196, 3193, 3196, 3194, 3179, 3196, 3187, 3195, 3204, 3201]
ch2 : [1570, 1569, 1569, 1554, 1559, 1571, 1574, 1573, 1572, 1569]
ch3 : [2732, 2740, 2738, 2735, 2737, 2740, 2743, 2724, 2740, 2734]
ch0 : [2476, 2548, 2520, 2309, 2454, 2464, 2491, 2489, 2452, 2406]
ch1 : [3191, 3190, 3194, 3191, 3200, 3193, 3192, 3194, 3193, 3196]
ch2 : [1570, 1564, 1559, 1563, 1574, 1574, 1570, 1575, 1571, 1568]
ch3 : [2738, 2736, 2734, 2738, 2737, 2741, 2740, 2737, 2740, 2738]
ch0 : [2539, 2381, 2345, 2455, 2491, 2529, 2465, 2471, 2540, 2527]
ch1 : [3191, 3203, 3195, 3195, 3195, 3192, 3191, 3198, 3188, 3193]
ch2 : [1557, 1558, 1572, 1575, 1571, 1569, 1568, 1573, 1569, 1551]
ch3 : [2731, 2737, 2739, 2741, 2735, 2737, 2736, 2732, 2750, 2738]
ch0 : [2296, 2443, 2484, 2479, 2490, 2455, 2418, 2527, 2445, 2349]
ch1 : [3193, 3188, 3194, 3193, 3193, 3194, 3195, 3186, 3196, 3190]
ch2 : [1566, 1573, 1562, 1574, 1570, 1570, 1570, 1557, 1553, 1573]
ch3 : [2742, 2741, 2739, 2740, 2740, 2739, 2741, 2737, 2738, 2746]
ch0 : [2459, 2489, 2527, 2461, 2467, 2535, 2540, 2278, 2433, 2474]
ch1 : [3188, 3202, 3191, 3182, 3189, 3190, 3193, 3193, 3191, 3191]
ch2 : [1572, 1572, 1572, 1568, 1566, 1570, 1556, 1564, 1571, 1572]
ch3 : [2744, 2739, 2741, 2744, 2739, 2740, 2740, 2741, 2735, 2744]
ch0 : [2468, 2505, 2460, 2409, 2527, 2460, 2316, 2455, 2479, 2513]
ch1 : [3189, 3183, 3186, 3193, 3191, 3197, 3194, 3190, 3196, 3191]
ch2 : [1572, 1571, 1569, 1569, 1559, 1557, 1570, 1575, 1568, 1566]
ch3 : [2744, 2740, 2740, 2740, 2740, 2738, 2741, 2748, 2740, 2742]
ch0 : [2476, 2469, 2537, 2537, 2288, 2444, 2468, 2464, 2503, 2452]
ch1 : [3180, 3192, 3193, 3193, 3197, 3192, 3191, 3193, 3192, 3196]
ch2 : [1569, 1569, 1564, 1557, 1569, 1576, 1574, 1571, 1572, 1571]
ch3 : [2725, 2735, 2741, 2736, 2744, 2737, 2744, 2743, 2739, 2738]
ch0 : [2425, 2541, 2442, 2319, 2453, 2479, 2530, 2474, 2466, 2535]
ch1 : [3192, 3193, 3195, 3187, 3187, 3192, 3191, 3196, 3197, 3191]
ch2 : [1569, 1556, 1558, 1570, 1571, 1574, 1572, 1571, 1570, 1571]
ch3 : [2742, 2746, 2737, 2738, 2743, 2743, 2729, 2737, 2736, 2741]
ch0 : [2537, 2271, 2437, 2477, 2462, 2495, 2452, 2424, 2539, 2421]
ch1 : [3194, 3198, 3193, 3188, 3196, 3193, 3194, 3196, 3191, 3200]
ch2 : [1564, 1562, 1573, 1574, 1574, 1580, 1568, 1572, 1561, 1545]
ch3 : [2739, 2739, 2741, 2741, 2742, 2739, 2740, 2744, 2739, 2739]
ch0 : [2309, 2447, 2480, 2530, 2467, 2448, 2539, 2538, 2259, 2430]
ch1 : [3193, 3193, 3198, 3191, 3190, 3187, 3191, 3190, 3195, 3191]
ch2 : [1572, 1575, 1576, 1573, 1573, 1570, 1575, 1559, 1563, 1579]
ch3 : [2745, 2742, 2741, 2740, 2740, 2733, 2740, 2738, 2740, 2743]
ch0 : [2526, 2482, 2456, 2536, 2521, 2262, 2423, 2471, 2476, 2487]
ch1 : [3192, 3194, 3195, 3192, 3196, 3197, 3183, 3192, 3199, 3194]
ch2 : [1574, 1573, 1572, 1572, 1561, 1563, 1575, 1571, 1577, 1574]
ch3 : [2741, 2739, 2740, 2743, 2749, 2741, 2744, 2744, 2743, 2741]
ch0 : [2453, 2425, 2543, 2508, 2304, 2441, 2482, 2539, 2479, 2449]
ch1 : [3199, 3197, 3190, 3190, 3190, 3193, 3197, 3193, 3190, 3193]
ch2 : [1574, 1573, 1549, 1554, 1572, 1579, 1575, 1575, 1574, 1571]
ch3 : [2743, 2741, 2738, 2738, 2741, 2744, 2728, 2743, 2743, 2739]
ch0 : [2500, 2536, 2308, 2419, 2464, 2466, 2500, 2452, 2427, 2531]
ch1 : [3190, 3193, 3191, 3195, 3194, 3192, 3193, 3191, 3193, 3190]
ch2 : [1574, 1557, 1564, 1575, 1576, 1575, 1572, 1571, 1577, 1563]
ch3 : [2746, 2743, 2738, 2742, 2745, 2745, 2741, 2742, 2742, 2738]
ch0 : [2508, 2275, 2441, 2484, 2528, 2478, 2435, 2479, 2542, 2346]
ch1 : [3191, 3193, 3195, 3192, 3194, 3191, 3197, 3192, 3189, 3190]
ch2 : [1559, 1568, 1577, 1580, 1571, 1576, 1571, 1576, 1558, 1560]
ch3 : [2737, 2743, 2745, 2745, 2743, 2739, 2741, 2742, 2740, 2742]
ch0 : [2406, 2477, 2453, 2484, 2461, 2447, 2535, 2473, 2254, 2430]
ch1 : [3194, 3184, 3196, 3193, 3192, 3193, 3193, 3193, 3194, 3187]
ch2 : [1574, 1576, 1573, 1578, 1578, 1573, 1564, 1556, 1565, 1581]
ch3 : [2747, 2745, 2747, 2742, 2742, 2744, 2740, 2739, 2748, 2746]
ch0 : [2457, 2529, 2502, 2459, 2452, 2537, 2416, 2395, 2481, 2472]
ch1 : [3191, 3192, 3191, 3180, 3193, 3186, 3192, 3193, 3196, 3200]
ch2 : [1579, 1574, 1570, 1573, 1568, 1552, 1561, 1577, 1576, 1575]
ch3 : [2747, 2745, 2745, 2740, 2742, 2742, 2740, 2746, 2746, 2745]
ch0 : [2502, 2457, 2458, 2537, 2482, 2250, 2432, 2481, 2528, 2501]
ch1 : [3193, 3192, 3193, 3191, 3186, 3195, 3197, 3193, 3193, 3191]
ch2 : [1570, 1575, 1576, 1564, 1555, 1570, 1577, 1576, 1565, 1576]
ch3 : [2744, 2743, 2743, 2739, 2741, 2745, 2748, 2746, 2746, 2743]
ch0 : [2446, 2445, 2535, 2443, 2403, 2473, 2469, 2489, 2485, 2462]
ch1 : [3192, 3196, 3194, 3191, 3189, 3189, 3195, 3194, 3192, 3196]
ch2 : [1572, 1567, 1564, 1564, 1580, 1577, 1574, 1575, 1572, 1574]
ch3 : [2742, 2739, 2744, 2745, 2746, 2746, 2741, 2742, 2739, 2744]
ch0 : [2536, 2532, 2232, 2427, 2475, 2526, 2517, 2448, 2431, 2535]
ch1 : [3195, 3191, 3198, 3191, 3193, 3196, 3194, 3193, 3194, 3206]
ch2 : [1564, 1552, 1569, 1581, 1577, 1574, 1572, 1569, 1572, 1561]
ch3 : [2741, 2743, 2745, 2747, 2744, 2748, 2739, 2744, 2748, 2744]
ch0 : [2477, 2389, 2488, 2470, 2495, 2460, 2460, 2535, 2506, 2226]
ch1 : [3199, 3191, 3195, 3195, 3192, 3196, 3187, 3193, 3190, 3209]
ch2 : [1559, 1571, 1572, 1577, 1573, 1572, 1572, 1569, 1554, 1569]
ch3 : [2742, 2749, 2748, 2746, 2743, 2748, 2754, 2742, 2743, 2742]
ch0 : [2417, 2465, 2509, 2501, 2430, 2446, 2544, 2491, 2383, 2471]
ch1 : [3192, 3195, 3193, 3187, 3187, 3189, 3191, 3187, 3191, 3191]
ch2 : [1575, 1577, 1572, 1572, 1560, 1572, 1551, 1558, 1574, 1576]
ch3 : [2759, 2743, 2748, 2748, 2749, 2749, 2744, 2746, 2748, 2744]
ch0 : [2462, 2484, 2458, 2452, 2538, 2507, 2215, 2406, 2468, 2479]
ch1 : [3191, 3187, 3193, 3193, 3194, 3192, 3197, 3193, 3196, 3193]
ch2 : [1575, 1567, 1574, 1567, 1572, 1559, 1569, 1578, 1575, 1576]
ch3 : [2742, 2747, 2743, 2746, 2745, 2742, 2745, 2747, 2748, 2747]
ch0 : [2511, 2444, 2439, 2505, 2477, 2377, 2470, 2463, 2486, 2453]
ch1 : [3191, 3194, 3194, 3190, 3193, 3190, 3191, 3192, 3191, 3192]
ch2 : [1580, 1573, 1575, 1563, 1551, 1575, 1577, 1577, 1577, 1580]
ch3 : [2744, 2748, 2748, 2744, 2745, 2746, 2749, 2750, 2748, 2746]
ch0 : [2437, 2529, 2445, 2182, 2412, 2450, 2478, 2508, 2444, 2442]
ch1 : [3195, 3200, 3192, 3199, 3195, 3192, 3193, 3201, 3197, 3190]
ch2 : [1577, 1574, 1560, 1570, 1581, 1582, 1581, 1576, 1574, 1576]
ch3 : [2748, 2744, 2741, 2752, 2745, 2756, 2748, 2747, 2748, 2744]
ch0 : [2532, 2521, 2364, 2459, 2465, 2494, 2468, 2430, 2532, 2492]
ch1 : [3191, 3194, 3193, 3196, 3181, 3195, 3192, 3196, 3191, 3196]
ch2 : [1569, 1563, 1582, 1578, 1578, 1576, 1580, 1581, 1572, 1559]
ch3 : [2745, 2748, 2750, 2752, 2749, 2746, 2747, 2742, 2744, 2744]
ch0 : [2169, 2402, 2466, 2473, 2503, 2434, 2428, 2531, 2508, 2357]
ch1 : [3198, 3193, 3196, 3187, 3205, 3192, 3195, 3193, 3196, 3193]
ch2 : [1569, 1581, 1585, 1574, 1576, 1578, 1570, 1565, 1564, 1578]
ch3 : [2747, 2752, 2734, 2753, 2744, 2758, 2748, 2745, 2749, 2747]
ch0 : [2450, 2462, 2493, 2473, 2433, 2528, 2508, 2161, 2387, 2463]
ch1 : [3200, 3195, 3193, 3193, 3195, 3197, 3194, 3195, 3194, 3195]
ch2 : [1581, 1582, 1562, 1576, 1574, 1575, 1559, 1568, 1582, 1578]
ch3 : [2746, 2751, 2747, 2749, 2746, 2748, 2754, 2746, 2750, 2751]
ch0 : [2474, 2510, 2440, 2437, 2530, 2507, 2346, 2461, 2468, 2491]
ch1 : [3197, 3196, 3187, 3198, 3193, 3192, 3193, 3193, 3197, 3193]
ch2 : [1576, 1579, 1575, 1575, 1567, 1564, 1574, 1578, 1578, 1576]
ch3 : [2750, 2751, 2745, 2748, 2748, 2743, 2751, 2751, 2748, 2747]
ch0 : [2471, 2421, 2473, 2511, 2151, 2389, 2458, 2474, 2502, 2437]
ch1 : [3192, 3194, 3194, 3192, 3187, 3196, 3191, 3193, 3193, 3197]
ch2 : [1575, 1578, 1581, 1562, 1566, 1583, 1581, 1578, 1576, 1574]
ch3 : [2746, 2748, 2747, 2748, 2745, 2750, 2750, 2744, 2746, 2746]
ch0 : [2450, 2532, 2523, 2348, 2458, 2465, 2481, 2466, 2427, 2428]
ch1 : [3196, 3192, 3193, 3195, 3192, 3194, 3191, 3192, 3194, 3187]
ch2 : [1580, 1571, 1569, 1579, 1580, 1583, 1585, 1576, 1576, 1578]
ch3 : [2744, 2746, 2743, 2754, 2748, 2747, 2751, 2748, 2736, 2753]
ch0 : [2331, 2439, 2464, 2494, 2485, 2422, 2405, 2527, 2187, 2370]
ch1 : [3192, 3193, 3198, 3194, 3191, 3195, 3192, 3191, 3197, 3197]
ch2 : [1579, 1579, 1574, 1576, 1588, 1578, 1581, 1564, 1566, 1580]
ch3 : [2751, 2751, 2749, 2751, 2749, 2746, 2752, 2741, 2747, 2752]
ch0 : [2456, 2474, 2518, 2428, 2452, 2530, 2524, 2332, 2452, 2463]
ch1 : [3193, 3194, 3188, 3194, 3197, 3195, 3196, 3192, 3191, 3192]
ch2 : [1582, 1582, 1575, 1575, 1561, 1557, 1564, 1576, 1584, 1581]
ch3 : [2753, 2751, 2750, 2758, 2749, 2748, 2750, 2750, 2750, 2749]
ch0 : [2493, 2466, 2427, 2396, 2526, 2244, 2367, 2449, 2478, 2504]
ch1 : [3192, 3194, 3187, 3192, 3196, 3194, 3194, 3192, 3191, 3192]
ch2 : [1584, 1575, 1576, 1573, 1562, 1564, 1580, 1581, 1581, 1581]
ch3 : [2751, 2760, 2748, 2748, 2749, 2748, 2751, 2742, 2750, 2741]
ch0 : [2433, 2458, 2527, 2496, 2310, 2448, 2456, 2493, 2485, 2425]
ch1 : [3195, 3192, 3190, 3187, 3197, 3197, 3189, 3191, 3195, 3193]
ch2 : [1578, 1582, 1575, 1574, 1574, 1582, 1579, 1581, 1580, 1579]
ch3 : [2745, 2738, 2749, 2751, 2750, 2756, 2750, 2755, 2749, 2752]
ch0 : [2396, 2531, 2310, 2352, 2442, 2492, 2522, 2445, 2456, 2528]
ch1 : [3192, 3175, 3194, 3195, 3192, 3187, 3188, 3190, 3196, 3191]
ch2 : [1579, 1564, 1566, 1584, 1587, 1580, 1581, 1574, 1578, 1567]
ch3 : [2745, 2743, 2759, 2748, 2754, 2751, 2748, 2761, 2744, 2746]
ch0 : [2509, 2316, 2437, 2477, 2492, 2469, 2430, 2406, 2526, 2375]
ch1 : [3189, 3193, 3195, 3197, 3191, 3189, 3187, 3195, 3187, 3193]
ch2 : [1569, 1573, 1585, 1580, 1582, 1575, 1587, 1579, 1567, 1562]
ch3 : [2748, 2753, 2758, 2751, 2757, 2749, 2753, 2747, 2750, 2744]
ch0 : [2336, 2439, 2478, 2522, 2446, 2451, 2528, 2533, 2295, 2432]
ch1 : [3194, 3196, 3191, 3193, 3197, 3194, 3194, 3191, 3191, 3195]
ch2 : [1582, 1581, 1582, 1579, 1577, 1581, 1572, 1567, 1577, 1582]
ch3 : [2764, 2755, 2751, 2744, 2747, 2750, 2751, 2748, 2745, 2753]
ch0 : [2463, 2495, 2496, 2433, 2397, 2478, 2416, 2334, 2448, 2466]
ch1 : [3196, 3192, 3194, 3194, 3195, 3192, 3187, 3196, 3190, 3194]
ch2 : [1579, 1580, 1578, 1585, 1580, 1565, 1562, 1583, 1582, 1579]
ch3 : [2752, 2753, 2753, 2751, 2749, 2751, 2747, 2751, 2751, 2764]
ch0 : [2521, 2441, 2451, 2529, 2521, 2278, 2426, 2465, 2452, 2484]
ch1 : [3192, 3194, 3190, 3190, 3194, 3191, 3196, 3193, 3196, 3191]
ch2 : [1583, 1581, 1578, 1568, 1566, 1573, 1584, 1582, 1576, 1583]
ch3 : [2751, 2749, 2752, 2743, 2752, 2753, 2754, 2751, 2752, 2751]
ch0 : [2446, 2393, 2531, 2481, 2326, 2443, 2467, 2518, 2458, 2449]
ch1 : [3191, 3192, 3177, 3194, 3192, 3193, 3196, 3192, 3194, 3193]
ch2 : [1569, 1580, 1568, 1565, 1568, 1582, 1582, 1584, 1578, 1577]
ch3 : [2756, 2755, 2737, 2743, 2756, 2753, 2754, 2763, 2752, 2752]
ch0 : [2528, 2515, 2260, 2417, 2471, 2441, 2475, 2435, 2402, 2484]
ch1 : [3192, 3194, 3194, 3191, 3187, 3187, 3188, 3196, 3187, 3195]
ch2 : [1576, 1573, 1583, 1580, 1580, 1579, 1578, 1583, 1576, 1568]
ch3 : [2752, 2748, 2751, 2760, 2751, 2758, 2760, 2750, 2759, 2752]
ch0 : [2448, 2316, 2429, 2461, 2521, 2453, 2446, 2524, 2501, 2254]
ch1 : [3194, 3192, 3195, 3193, 3192, 3196, 3201, 3195, 3193, 3193]
ch2 : [1564, 1580, 1583, 1580, 1580, 1575, 1579, 1577, 1564, 1568]
ch3 : [2746, 2760, 2758, 2751, 2753, 2757, 2753, 2752, 2749, 2752]
ch0 : [2417, 2456, 2448, 2475, 2433, 2411, 2525, 2443, 2305, 2422]
ch1 : [3196, 3192, 3191, 3192, 3194, 3185, 3194, 3190, 3180, 3196]
ch2 : [1581, 1581, 1584, 1580, 1581, 1579, 1572, 1569, 1583, 1585]
ch3 : [2751, 2752, 2754, 2760, 2751, 2751, 2752, 2750, 2753, 2762]
ch0 : [2464, 2518, 2448, 2431, 2519, 2518, 2265, 2414, 2443, 2454]
ch1 : [3196, 3193, 3194, 3195, 3196, 3197, 3195, 3195, 3192, 3195]
ch2 : [1585, 1580, 1581, 1580, 1582, 1568, 1573, 1586, 1586, 1584]
ch3 : [2751, 2750, 2750, 2749, 2751, 2748, 2751, 2753, 2756, 2752]
ch0 : [2475, 2449, 2410, 2521, 2520, 2297, 2422, 2457, 2515, 2462]
ch1 : [3196, 3193, 3192, 3185, 3194, 3194, 3192, 3194, 3190, 3193]
ch2 : [1581, 1581, 1582, 1571, 1565, 1578, 1601, 1582, 1593, 1565]
ch3 : [2751, 2749, 2755, 2750, 2747, 2755, 2755, 2754, 2751, 2751]
ch0 : [2432, 2517, 2528, 2230, 2407, 2465, 2439, 2479, 2450, 2417]
ch1 : [3194, 3191, 3193, 3199, 3196, 3193, 3196, 3205, 3197, 3193]
ch2 : [1578, 1582, 1566, 1567, 1579, 1584, 1585, 1581, 1578, 1580]
ch3 : [2752, 2756, 2752, 2756, 2757, 2754, 2751, 2749, 2752, 2753]
ch0 : [2527, 2444, 2264, 2424, 2468, 2500, 2461, 2440, 2503, 2525]
ch1 : [3191, 3194, 3198, 3194, 3191, 3193, 3187, 3204, 3193, 3194]
ch2 : [1568, 1563, 1580, 1582, 1587, 1580, 1578, 1587, 1579, 1566]
ch3 : [2756, 2752, 2752, 2757, 2756, 2756, 2757, 2751, 2753, 2752]
ch0 : [2248, 2399, 2457, 2445, 2485, 2439, 2417, 2522, 2450, 2257]
ch1 : [3197, 3193, 3194, 3196, 3192, 3205, 3192, 3191, 3195, 3194]
ch2 : [1569, 1581, 1582, 1582, 1582, 1579, 1579, 1575, 1560, 1575]
ch3 : [2754, 2755, 2755, 2756, 2753, 2756, 2752, 2750, 2756, 2754]
ch0 : [2422, 2461, 2517, 2463, 2422, 2466, 2518, 2303, 2407, 2446]
ch1 : [3189, 3193, 3194, 3191, 3188, 3197, 3192, 3196, 3193, 3192]
ch2 : [1582, 1581, 1584, 1578, 1582, 1578, 1560, 1569, 1582, 1581]
ch3 : [2757, 2757, 2757, 2750, 2743, 2753, 2753, 2754, 2756, 2757]
ch0 : [2431, 2479, 2440, 2430, 2527, 2431, 2241, 2415, 2468, 2513]
ch1 : [3192, 3194, 3195, 3192, 3191, 3190, 3195, 3195, 3196, 3191]
ch2 : [1579, 1579, 1581, 1574, 1573, 1559, 1575, 1585, 1583, 1582]
ch3 : [2755, 2757, 2751, 2752, 2751, 2763, 2760, 2757, 2745, 2756]
ch0 : [2468, 2413, 2431, 2492, 2335, 2388, 2446, 2434, 2466, 2434]
ch1 : [3195, 3189, 3177, 3192, 3196, 3188, 3190, 3193, 3196, 3193]
ch2 : [1582, 1572, 1579, 1570, 1567, 1579, 1584, 1581, 1580, 1580]
ch3 : [2751, 2755, 2757, 2751, 2756, 2755, 2758, 2756, 2756, 2757]
ch0 : [2418, 2521, 2532, 2239, 2408, 2444, 2512, 2467, 2422, 2424]
ch1 : [3193, 3193, 3191, 3190, 3195, 3195, 3190, 3187, 3192, 3194]
ch2 : [1566, 1573, 1562, 1577, 1579, 1581, 1575, 1576, 1578, 1584]
ch3 : [2757, 2752, 2752, 2755, 2756, 2760, 2754, 2754, 2756, 2757]
ch0 : [2520, 2387, 2374, 2448, 2456, 2469, 2436, 2427, 2514, 2494]
ch1 : [3187, 3196, 3189, 3194, 3198, 3192, 3194, 3191, 3191, 3185]
ch2 : [1569, 1565, 1582, 1584, 1585, 1579, 1580, 1579, 1569, 1563]
ch3 : [2755, 2752, 2758, 2754, 2756, 2755, 2756, 2755, 2757, 2754]
ch0 : [2233, 2408, 2447, 2504, 2483, 2418, 2421, 2511, 2437, 2362]
ch1 : [3192, 3192, 3189, 3190, 3193, 3192, 3196, 3188, 3191, 3194]
ch2 : [1576, 1581, 1581, 1571, 1579, 1573, 1583, 1568, 1566, 1584]
ch3 : [2757, 2761, 2759, 2759, 2743, 2755, 2756, 2752, 2750, 2758]
ch0 : [2453, 2440, 2457, 2436, 2438, 2515, 2440, 2213, 2399, 2446]
ch1 : [3192, 3194, 3192, 3194, 3185, 3196, 3189, 3196, 3188, 3183]
ch2 : [1583, 1581, 1584, 1576, 1579, 1573, 1565, 1571, 1582, 1583]
ch3 : [2758, 2756, 2747, 2760, 2756, 2753, 2753, 2754, 2761, 2754]
ch0 : [2500, 2479, 2424, 2406, 2511, 2447, 2370, 2457, 2441, 2471]
ch1 : [3192, 3191, 3193, 3193, 3193, 3193, 3196, 3193, 3189, 3196]
ch2 : [1572, 1572, 1578, 1580, 1566, 1566, 1580, 1580, 1579, 1582]
ch3 : [2760, 2757, 2758, 2757, 2755, 2756, 2756, 2755, 2751, 2756]
ch0 : [2447, 2432, 2520, 2437, 2189, 2394, 2438, 2462, 2477, 2429]
ch1 : [3194, 3191, 3193, 3187, 3197, 3190, 3187, 3200, 3193, 3193]
ch2 : [1584, 1579, 1575, 1558, 1570, 1578, 1580, 1566, 1577, 1573]
ch3 : [2758, 2757, 2757, 2757, 2753, 2759, 2756, 2760, 2753, 2760]
ch0 : [2421, 2516, 2483, 2365, 2436, 2448, 2481, 2462, 2430, 2513]
ch1 : [3192, 3190, 3192, 3196, 3197, 3196, 3192, 3192, 3190, 3194]
ch2 : [1573, 1563, 1564, 1590, 1585, 1583, 1580, 1574, 1583, 1575]
ch3 : [2754, 2750, 2751, 2759, 2760, 2756, 2755, 2756, 2758, 2762]
ch0 : [2520, 2177, 2385, 2431, 2464, 2464, 2436, 2424, 2518, 2492]
ch1 : [3198, 3196, 3192, 3186, 3191, 3179, 3200, 3193, 3195, 3191]
ch2 : [1561, 1571, 1581, 1583, 1589, 1582, 1578, 1575, 1568, 1565]
ch3 : [2751, 2756, 2759, 2758, 2753, 2757, 2756, 2756, 2756, 2755]
ch0 : [2349, 2431, 2448, 2464, 2457, 2428, 2521, 2508, 2161, 2368]
ch1 : [3193, 3192, 3189, 3196, 3193, 3194, 3193, 3192, 3196, 3193]
ch2 : [1580, 1580, 1576, 1577, 1579, 1580, 1574, 1555, 1572, 1584]
ch3 : [2761, 2760, 2759, 2760, 2754, 2756, 2755, 2754, 2755, 2760]
ch0 : [2471, 2434, 2410, 2515, 2515, 2138, 2369, 2431, 2444, 2474]
ch1 : [3194, 3188, 3193, 3193, 3190, 3193, 3192, 3188, 3192, 3191]
ch2 : [1583, 1574, 1577, 1575, 1564, 1574, 1584, 1589, 1590, 1578]
ch3 : [2756, 2766, 2755, 2756, 2757, 2756, 2758, 2761, 2760, 2757]
ch0 : [2411, 2408, 2515, 2459, 2326, 2435, 2423, 2479, 2443, 2394]
ch1 : [3192, 3196, 3191, 3192, 3205, 3195, 3195, 3190, 3193, 3194]
ch2 : [1571, 1566, 1562, 1564, 1572, 1572, 1574, 1569, 1561, 1558]
ch3 : [2750, 2762, 2757, 2756, 2768, 2757, 2759, 2760, 2766, 2755]
ch0 : [2509, 2457, 2140, 2367, 2430, 2449, 2489, 2409, 2421, 2500]
ch1 : [3197, 3193, 3193, 3191, 3194, 3192, 3193, 3192, 3193, 3193]
ch2 : [1565, 1553, 1554, 1565, 1562, 1559, 1559, 1560, 1559, 1550]
ch3 : [2758, 2755, 2756, 2759, 2760, 2751, 2756, 2754, 2757, 2759]
ch0 : [2493, 2313, 2427, 2437, 2469, 2453, 2405, 2447, 2510, 2148]
ch1 : [3195, 3199, 3190, 3192, 3191, 3193, 3193, 3197, 3196, 3193]
ch2 : [1543, 1544, 1567, 1562, 1560, 1560, 1555, 1559, 1545, 1550]
ch3 : [2756, 2761, 2746, 2756, 2755, 2756, 2757, 2757, 2756, 2754]
ch0 : [2373, 2436, 2460, 2497, 2406, 2428, 2512, 2502, 2308, 2441]
ch1 : [3200, 3195, 3197, 3183, 3193, 3191, 3192, 3194, 3197, 3193]
ch2 : [1562, 1558, 1558, 1551, 1546, 1555, 1543, 1539, 1550, 1552]
ch3 : [2763, 2757, 2760, 2747, 2756, 2755, 2757, 2754, 2755, 2754]
ch0 : [2499, 2430, 2436, 2516, 2519, 2317, 2436, 2452, 2463, 2450]
ch1 : [3192, 3191, 3196, 3191, 3189, 3193, 3193, 3193, 3194, 3195]
ch2 : [1528, 1515, 1517, 1496, 1505, 1526, 1517, 1517, 1523, 1515]
ch3 : [2766, 2761, 2756, 2757, 2757, 2762, 2758, 2756, 2755, 2756]
ch0 : [2405, 2384, 2516, 2152, 2352, 2429, 2482, 2498, 2433, 2446]
ch1 : [3193, 3192, 3191, 3196, 3187, 3194, 3178, 3191, 3196, 3195]
ch2 : [1513, 1513, 1502, 1497, 1515, 1510, 1509, 1507, 1501, 1503]
ch3 : [2756, 2760, 2759, 2757, 2758, 2755, 2759, 2752, 2747, 2755]
ch0 : [2517, 2522, 2313, 2436, 2458, 2474, 2469, 2422, 2393, 2519]
ch1 : [3189, 3194, 3204, 3191, 3196, 3196, 3209, 3196, 3193, 3192]
ch2 : [1498, 1491, 1491, 1520, 1503, 1498, 1498, 1497, 1494, 1483]
ch3 : [2759, 2754, 2756, 2757, 2759, 2756, 2757, 2764, 2755, 2754]
ch0 : [2204, 2351, 2436, 2470, 2464, 2419, 2440, 2525, 2470, 2311]
ch1 : [3191, 3187, 3195, 3195, 3196, 3194, 3186, 3193, 3195, 3194]
ch2 : [1480, 1494, 1495, 1473, 1487, 1488, 1484, 1475, 1468, 1477]
ch3 : [2751, 2759, 2769, 2763, 2755, 2756, 2758, 2751, 2756, 2759]
ch0 : [2429, 2445, 2476, 2457, 2403, 2382, 2512, 2259, 2343, 2428]
ch1 : [3196, 3191, 3193, 3195, 3191, 3183, 3192, 3187, 3196, 3187]
ch2 : [1483, 1481, 1486, 1478, 1479, 1477, 1465, 1462, 1483, 1477]
ch3 : [2758, 2761, 2759, 2754, 2758, 2755, 2742, 2751, 2758, 2761]
ch0 : [2462, 2484, 2418, 2430, 2518, 2466, 2282, 2416, 2437, 2469]
ch1 : [3189, 3200, 3188, 3192, 3197, 3191, 3196, 3194, 3191, 3194]
ch2 : [1475, 1483, 1475, 1477, 1467, 1461, 1468, 1476, 1478, 1481]
ch3 : [2760, 2757, 2742, 2756, 2756, 2755, 2756, 2758, 2763, 2758]
ch0 : [2474, 2424, 2387, 2516, 2310, 2334, 2423, 2464, 2504, 2416]
ch1 : [3194, 3187, 3196, 3193, 3197, 3191, 3193, 3192, 3193, 3196]
ch2 : [1475, 1474, 1480, 1447, 1462, 1483, 1482, 1480, 1463, 1477]
ch3 : [2758, 2755, 2757, 2751, 2753, 2766, 2758, 2763, 2756, 2754]
ch0 : [2497, 2355, 2316, 2425, 2459, 2498, 2414, 2419, 2515, 2518]
ch1 : [3193, 3193, 3196, 3196, 3192, 3190, 3190, 3193, 3197, 3187]
ch2 : [1480, 1479, 1496, 1501, 1499, 1499, 1499, 1503, 1498, 1491]
ch3 : [2755, 2754, 2759, 2760, 2764, 2751, 2756, 2757, 2756, 2758]
ch0 : [2266, 2409, 2439, 2444, 2459, 2418, 2363, 2509, 2400, 2317]
ch1 : [3195, 3193, 3195, 3193, 3194, 3190, 3194, 3193, 3196, 3195]
ch2 : [1506, 1508, 1511, 1507, 1511, 1512, 1503, 1489, 1498, 1518]
ch3 : [2762, 2762, 2759, 2758, 2759, 2760, 2760, 2756, 2756, 2760]
ch0 : [2429, 2459, 2504, 2443, 2442, 2513, 2512, 2256, 2408, 2437]
ch1 : [3191, 3193, 3197, 3192, 3196, 3195, 3194, 3182, 3192, 3188]
ch2 : [1522, 1519, 1518, 1534, 1518, 1516, 1510, 1520, 1527, 1529]
ch3 : [2756, 2754, 2761, 2757, 2759, 2758, 2762, 2761, 2760, 2764]
ch0 : [2442, 2465, 2428, 2370, 2512, 2464, 2299, 2412, 2447, 2506]
ch1 : [3190, 3194, 3195, 3194, 3196, 3198, 3198, 3191, 3195, 3191]
ch2 : [1528, 1528, 1528, 1528, 1514, 1513, 1529, 1536, 1522, 1529]
ch3 : [2762, 2759, 2761, 2759, 2748, 2752, 2760, 2764, 2763, 2760]
ch0 : [2422, 2416, 2507, 2511, 2246, 2417, 2441, 2422, 2452, 2401]
ch1 : [3193, 3195, 3192, 3195, 3190, 3187, 3196, 3196, 3191, 3196]
ch2 : [1527, 1526, 1531, 1517, 1526, 1538, 1537, 1533, 1530, 1523]
ch3 : [2758, 2754, 2762, 2756, 2754, 2762, 2760, 2761, 2759, 2770]
ch0 : [2363, 2518, 2449, 2288, 2428, 2447, 2490, 2428, 2409, 2510]
ch1 : [3194, 3193, 3193, 3189, 3192, 3197, 3192, 3193, 3196, 3192]
ch2 : [1531, 1516, 1514, 1531, 1535, 1532, 1529, 1526, 1527, 1532]
ch3 : [2758, 2759, 2760, 2768, 2767, 2761, 2761, 2758, 2766, 2759]
ch0 : [2516, 2226, 2395, 2424, 2416, 2462, 2433, 2388, 2501, 2449]
ch1 : [3191, 3196, 3197, 3195, 3190, 3187, 3196, 3191, 3194, 3187]
ch2 : [1516, 1522, 1532, 1532, 1531, 1528, 1533, 1526, 1519, 1512]
ch3 : [2761, 2763, 2765, 2761, 2764, 2759, 2760, 2762, 2764, 2761]
ch0 : [2285, 2419, 2448, 2500, 2446, 2423, 2521, 2500, 2225, 2398]
ch1 : [3191, 3194, 3193, 3191, 3195, 3193, 3191, 3200, 3197, 3197]
ch2 : [1529, 1533, 1530, 1533, 1526, 1529, 1525, 1517, 1523, 1532]
ch3 : [2759, 2763, 2762, 2762, 2761, 2761, 2761, 2761, 2761, 2763]
ch0 : [2510, 2439, 2411, 2509, 2505, 2218, 2378, 2451, 2421, 2452]
ch1 : [3191, 3194, 3191, 3197, 3192, 3197, 3192, 3207, 3196, 3192]
ch2 : [1531, 1544, 1531, 1535, 1520, 1526, 1539, 1538, 1535, 1532]
ch3 : [2759, 2760, 2752, 2758, 2761, 2758, 2765, 2760, 2763, 2759]
ch0 : [2419, 2378, 2510, 2397, 2253, 2405, 2435, 2495, 2437, 2409]
ch1 : [3184, 3190, 3194, 3178, 3193, 3192, 3193, 3192, 3200, 3192]
ch2 : [1532, 1530, 1522, 1514, 1535, 1538, 1537, 1533, 1533, 1531]
ch3 : [2759, 2756, 2759, 2755, 2761, 2763, 2765, 2760, 2760, 2758]
ch0 : [2469, 2483, 2231, 2383, 2434, 2418, 2448, 2421, 2387, 2513]
ch1 : [3192, 3194, 3195, 3193, 3192, 3190, 3196, 3191, 3190, 3191]
ch2 : [1534, 1528, 1524, 1536, 1543, 1540, 1535, 1537, 1539, 1526]
ch3 : [2762, 2759, 2759, 2762, 2763, 2758, 2758, 2767, 2759, 2754]
ch0 : [2479, 2248, 2405, 2430, 2495, 2413, 2406, 2476, 2494, 2255]
ch1 : [3194, 3198, 3193, 3192, 3196, 3192, 3196, 3193, 3195, 3195]
ch2 : [1520, 1535, 1539, 1535, 1541, 1531, 1535, 1537, 1523, 1533]
ch3 : [2754, 2760, 2763, 2759, 2759, 2758, 2761, 2763, 2760, 2759]
ch0 : [2367, 2439, 2421, 2444, 2416, 2404, 2506, 2384, 2242, 2392]
ch1 : [3193, 3194, 3194, 3184, 3191, 3192, 3195, 3196, 3190, 3196]
ch2 : [1538, 1540, 1533, 1540, 1537, 1530, 1546, 1525, 1538, 1549]
ch3 : [2760, 2764, 2758, 2760, 2759, 2764, 2758, 2773, 2762, 2763]
ch0 : [2427, 2499, 2468, 2401, 2443, 2519, 2294, 2375, 2430, 2437]
ch1 : [3191, 3191, 3191, 3194, 3195, 3192, 3197, 3192, 3190, 3190]
ch2 : [1543, 1540, 1539, 1536, 1539, 1525, 1527, 1543, 1535, 1541]
ch3 : [2765, 2773, 2760, 2763, 2763, 2759, 2761, 2759, 2762, 2761]
ch0 : [2450, 2404, 2420, 2505, 2449, 2206, 2387, 2438, 2498, 2441]
ch1 : [3193, 3177, 3192, 3179, 3193, 3194, 3196, 3193, 3194, 3193]
ch2 : [1540, 1540, 1543, 1531, 1528, 1540, 1546, 1543, 1542, 1538]
ch3 : [2763, 2763, 2762, 2760, 2759, 2765, 2766, 2765, 2764, 2760]
ch0 : [2399, 2420, 2507, 2342, 2380, 2436, 2408, 2453, 2418, 2412]
ch1 : [3192, 3188, 3191, 3193, 3194, 3190, 3192, 3200, 3197, 3193]
ch2 : [1539, 1540, 1527, 1534, 1538, 1561, 1543, 1541, 1540, 1541]
ch3 : [2766, 2764, 2764, 2762, 2765, 2763, 2765, 2765, 2763, 2764]
ch0 : [2486, 2446, 2208, 2379, 2428, 2498, 2423, 2403, 2402, 2504]
ch1 : [3194, 3192, 3197, 3190, 3192, 3200, 3193, 3193, 3196, 3192]
ch2 : [1539, 1527, 1538, 1533, 1538, 1544, 1540, 1541, 1542, 1535]
ch3 : [2750, 2763, 2758, 2764, 2769, 2762, 2762, 2762, 2760, 2763]
ch0 : [2390, 2355, 2430, 2429, 2445, 2411, 2414, 2505, 2473, 2199]
ch1 : [3190, 3200, 3200, 3190, 3190, 3188, 3194, 3194, 3199, 3183]
ch2 : [1531, 1548, 1549, 1547, 1544, 1548, 1544, 1539, 1527, 1543]
ch3 : [2764, 2765, 2767, 2767, 2763, 2762, 2765, 2765, 2761, 2764]
ch0 : [2375, 2431, 2494, 2463, 2399, 2400, 2506, 2376, 2357, 2430]
ch1 : [3190, 3191, 3194, 3203, 3204, 3194, 3193, 3196, 3187, 3192]
ch2 : [1550, 1550, 1531, 1546, 1543, 1546, 1535, 1535, 1547, 1545]
ch3 : [2754, 2765, 2767, 2770, 2765, 2765, 2760, 2764, 2763, 2764]
ch0 : [2417, 2438, 2415, 2413, 2503, 2509, 2188, 2386, 2433, 2495]
ch1 : [3193, 3193, 3191, 3197, 3193, 3187, 3190, 3196, 3190, 3196]
ch2 : [1552, 1544, 1546, 1547, 1529, 1529, 1542, 1557, 1550, 1547]
ch3 : [2766, 2759, 2761, 2764, 2762, 2765, 2763, 2766, 2770, 2764]
ch0 : [2456, 2414, 2399, 2497, 2466, 2343, 2424, 2434, 2439, 2433]
ch1 : [3194, 3188, 3192, 3188, 3194, 3192, 3194, 3197, 3193, 3193]
ch2 : [1542, 1546, 1547, 1539, 1535, 1543, 1550, 1550, 1556, 1550]
ch3 : [2760, 2760, 2764, 2762, 2753, 2766, 2769, 2771, 2768, 2763]
ch0 : [2406, 2505, 2456, 2165, 2391, 2432, 2444, 2457, 2398, 2404]
ch1 : [3192, 3192, 3194, 3184, 3192, 3197, 3192, 3194, 3191, 3205]
ch2 : [1548, 1547, 1533, 1542, 1547, 1556, 1548, 1547, 1545, 1549]
ch3 : [2765, 2764, 2761, 2764, 2768, 2767, 2766, 2764, 2763, 2764]
ch0 : [2501, 2434, 2353, 2423, 2403, 2451, 2423, 2420, 2501, 2501]
ch1 : [3193, 3189, 3189, 3194, 3193, 3183, 3194, 3192, 3192, 3191]
ch2 : [1537, 1540, 1537, 1551, 1552, 1548, 1548, 1549, 1541, 1532]
ch3 : [2759, 2764, 2768, 2767, 2766, 2768, 2765, 2763, 2760, 2761]
ch0 : [2183, 2384, 2420, 2436, 2462, 2402, 2392, 2500, 2434, 2343]
ch1 : [3186, 3191, 3193, 3194, 3188, 3192, 3193, 3191, 3193, 3195]
ch2 : [1549, 1554, 1552, 1553, 1548, 1555, 1550, 1541, 1550, 1550]
ch3 : [2764, 2770, 2773, 2767, 2763, 2764, 2765, 2763, 2765, 2765]
ch0 : [2424, 2421, 2449, 2423, 2420, 2504, 2414, 2151, 2377, 2442]
ch1 : [3191, 3195, 3194, 3191, 3190, 3189, 3197, 3194, 3196, 3197]
ch2 : [1552, 1553, 1552, 1551, 1550, 1539, 1531, 1540, 1555, 1554]
ch3 : [2767, 2768, 2765, 2763, 2766, 2766, 2758, 2765, 2769, 2767]
ch0 : [2446, 2480, 2412, 2401, 2508, 2479, 2351, 2430, 2431, 2461]
ch1 : [3193, 3191, 3191, 3193, 3203, 3195, 3194, 3190, 3191, 3195]
ch2 : [1544, 1545, 1550, 1552, 1542, 1538, 1554, 1550, 1557, 1551]
ch3 : [2770, 2762, 2762, 2767, 2764, 2769, 2766, 2766, 2767, 2766]
ch0 : [2454, 2417, 2512, 2467, 2155, 2369, 2436, 2449, 2477, 2402]
ch1 : [3193, 3193, 3177, 3192, 3194, 3199, 3192, 3196, 3187, 3195]
ch2 : [1551, 1551, 1553, 1537, 1547, 1554, 1550, 1543, 1548, 1550]
ch3 : [2760, 2769, 2766, 2764, 2766, 2768, 2766, 2768, 2768, 2762]
ch0 : [2405, 2510, 2475, 2334, 2422, 2435, 2469, 2435, 2392, 2507]
ch1 : [3189, 3191, 3197, 3197, 3192, 3192, 3192, 3190, 3193, 3187]
ch2 : [1549, 1532, 1538, 1552, 1551, 1541, 1552, 1555, 1547, 1552]
ch3 : [2766, 2763, 2762, 2767, 2768, 2767, 2763, 2764, 2766, 2768]
ch0 : [2500, 2156, 2372, 2433, 2437, 2472, 2413, 2408, 2508, 2455]
ch1 : [3191, 3197, 3198, 3200, 3183, 3193, 3197, 3189, 3190, 3198]
ch2 : [1537, 1544, 1557, 1557, 1556, 1553, 1551, 1553, 1538, 1545]
ch3 : [2765, 2768, 2770, 2772, 2769, 2768, 2753, 2768, 2766, 2766]
ch0 : [2324, 2430, 2431, 2448, 2447, 2406, 2500, 2443, 2129, 2364]
ch1 : [3195, 3189, 3193, 3194, 3191, 3194, 3192, 3200, 3198, 3192]
ch2 : [1556, 1553, 1552, 1556, 1555, 1569, 1554, 1537, 1549, 1558]
ch3 : [2771, 2770, 2768, 2769, 2767, 2770, 2767, 2764, 2766, 2772]
ch0 : [2427, 2446, 2486, 2407, 2404, 2510, 2483, 2313, 2417, 2428]
ch1 : [3195, 3195, 3196, 3196, 3181, 3194, 3197, 3192, 3190, 3191]
ch2 : [1553, 1560, 1549, 1554, 1553, 1548, 1545, 1552, 1557, 1557]
ch3 : [2765, 2769, 2759, 2768, 2767, 2768, 2772, 2768, 2770, 2773]
ch0 : [2467, 2445, 2391, 2462, 2447, 2138, 2364, 2424, 2449, 2452]
ch1 : [3187, 3193, 3196, 3189, 3196, 3197, 3196, 3193, 3196, 3191]
ch2 : [1558, 1557, 1553, 1553, 1538, 1544, 1555, 1557, 1563, 1547]
ch3 : [2768, 2770, 2772, 2769, 2781, 2764, 2772, 2770, 2772, 2764]
ch0 : [2420, 2413, 2511, 2476, 2315, 2428, 2435, 2454, 2439, 2383]
ch1 : [3190, 3186, 3200, 3199, 3194, 3191, 3197, 3189, 3203, 3177]
ch2 : [1549, 1551, 1546, 1539, 1554, 1556, 1558, 1558, 1555, 1554]
ch3 : [2767, 2767, 2769, 2767, 2778, 2773, 2767, 2764, 2765, 2763]
ch0 : [2391, 2487, 2117, 2356, 2438, 2439, 2474, 2418, 2409, 2509]
ch1 : [3203, 3189, 3196, 3187, 3195, 3192, 3189, 3183, 3187, 3196]
ch2 : [1560, 1535, 1542, 1559, 1558, 1560, 1550, 1557, 1536, 1550]
ch3 : [2772, 2767, 2752, 2775, 2769, 2759, 2766, 2768, 2771, 2768]
ch0 : [2490, 2317, 2423, 2435, 2486, 2456, 2392, 2377, 2510, 2110]
ch1 : [3187, 3198, 3197, 3191, 3192, 3196, 3194, 3195, 3194, 3195]
ch2 : [1543, 1551, 1555, 1556, 1557, 1554, 1558, 1565, 1535, 1543]
ch3 : [2770, 2771, 2771, 2771, 2771, 2768, 2766, 2768, 2751, 2766]
ch0 : [2346, 2431, 2452, 2493, 2414, 2426, 2506, 2518, 2294, 2415]
ch1 : [3196, 3192, 3192, 3196, 3191, 3192, 3191, 3191, 3187, 3195]
ch2 : [1558, 1558, 1537, 1554, 1554, 1556, 1542, 1545, 1552, 1561]
ch3 : [2767, 2770, 2770, 2781, 2767, 2768, 2766, 2768, 2773, 2772]
ch0 : [2442, 2448, 2447, 2386, 2365, 2492, 2164, 2336, 2423, 2442]
ch1 : [3195, 3188, 3193, 3194, 3198, 3191, 3197, 3192, 3196, 3194]
ch2 : [1557, 1556, 1558, 1553, 1555, 1537, 1541, 1562, 1560, 1556]
ch3 : [2770, 2770, 2767, 2767, 2768, 2769, 2764, 2774, 2772, 2773]
ch0 : [2389, 2359, 2487, 2256, 2320, 2417, 2435, 2462, 2394, 2420]
ch1 : [3190, 3192, 3193, 3195, 3196, 3194, 3194, 3193, 3192, 3193]
ch2 : [1552, 1555, 1541, 1542, 1565, 1561, 1557, 1559, 1551, 1567]
ch3 : [2768, 2757, 2767, 2759, 2772, 2777, 2773, 2769, 2770, 2770]
ch0 : [2507, 2455, 2281, 2393, 2433, 2451, 2427, 2388, 2355, 2460]
ch1 : [3192, 3193, 3193, 3193, 3183, 3190, 3195, 3193, 3206, 3191]
ch2 : [1553, 1544, 1552, 1571, 1562, 1558, 1558, 1557, 1561, 1547]
ch3 : [2771, 2767, 2772, 2771, 2771, 2772, 2765, 2777, 2771, 2769]
ch0 : [2265, 2322, 2412, 2441, 2497, 2401, 2419, 2508, 2506, 2275]
ch1 : [3190, 3194, 3187, 3192, 3196, 3192, 3196, 3195, 3193, 3194]
ch2 : [1543, 1562, 1572, 1558, 1552, 1556, 1557, 1554, 1544, 1555]
ch3 : [2770, 2773, 2775, 2772, 2773, 2776, 2769, 2770, 2768, 2771]
ch0 : [2412, 2423, 2453, 2441, 2390, 2369, 2508, 2330, 2314, 2417]
ch1 : [3191, 3187, 3194, 3193, 3199, 3193, 3189, 3193, 3194, 3191]
ch2 : [1563, 1561, 1553, 1555, 1561, 1558, 1542, 1545, 1555, 1561]
ch3 : [2775, 2771, 2778, 2774, 2772, 2767, 2780, 2771, 2771, 2771]
ch0 : [2440, 2486, 2415, 2421, 2505, 2500, 2258, 2403, 2425, 2454]
ch1 : [3194, 3192, 3187, 3191, 3193, 3192, 3196, 3193, 3190, 3194]
ch2 : [1558, 1561, 1555, 1555, 1553, 1543, 1552, 1556, 1560, 1545]
ch3 : [2768, 2773, 2769, 2774, 2772, 2766, 2772, 2768, 2771, 2775]
ch0 : [2447, 2402, 2358, 2492, 2408, 2285, 2418, 2444, 2497, 2419]
ch1 : [3194, 3191, 3195, 3192, 3192, 3194, 3192, 3195, 3192, 3194]
ch2 : [1557, 1557, 1557, 1542, 1539, 1560, 1563, 1556, 1560, 1553]
ch3 : [2765, 2773, 2773, 2769, 2764, 2773, 2775, 2777, 2771, 2760]
ch0 : [2432, 2505, 2492, 2229, 2393, 2430, 2439, 2457, 2406, 2360]
ch1 : [3194, 3190, 3196, 3193, 3193, 3193, 3192, 3191, 3189, 3195]
ch2 : [1557, 1551, 1548, 1552, 1554, 1560, 1559, 1559, 1542, 1555]
ch3 : [2765, 2769, 2770, 2774, 2774, 2773, 2774, 2769, 2772, 2771]
ch0 : [2495, 2393, 2291, 2416, 2438, 2494, 2420, 2417, 2504, 2464]
ch1 : [3189, 3191, 3195, 3192, 3190, 3192, 3196, 3183, 3195, 3191]
ch2 : [1545, 1539, 1560, 1560, 1565, 1560, 1556, 1557, 1565, 1549]
ch3 : [2772, 2765, 2776, 2777, 2787, 2773, 2768, 2771, 2772, 2770]
ch0 : [2237, 2411, 2441, 2414, 2460, 2424, 2369, 2489, 2446, 2281]
ch1 : [3196, 3193, 3194, 3191, 3193, 3193, 3195, 3197, 3197, 3203]
ch2 : [1552, 1563, 1560, 1560, 1560, 1558, 1557, 1546, 1542, 1560]
ch3 : [2771, 2762, 2774, 2769, 2771, 2773, 2773, 2770, 2770, 2779]
ch0 : [2385, 2447, 2495, 2415, 2425, 2502, 2493, 2232, 2386, 2428]
ch1 : [3190, 3190, 3200, 3194, 3191, 3195, 3187, 3197, 3191, 3197]
ch2 : [1566, 1560, 1555, 1555, 1561, 1555, 1544, 1548, 1561, 1561]
ch3 : [2774, 2775, 2771, 2772, 2771, 2769, 2767, 2770, 2777, 2766]
ch0 : [2412, 2461, 2418, 2375, 2504, 2414, 2267, 2404, 2438, 2498]
ch1 : [3192, 3183, 3190, 3190, 3193, 3191, 3197, 3198, 3193, 3200]
ch2 : [1561, 1558, 1560, 1554, 1548, 1544, 1560, 1563, 1563, 1559]
ch3 : [2777, 2772, 2770, 2765, 2773, 2770, 2773, 2774, 2777, 2770]
ch0 : [2437, 2400, 2514, 2487, 2201, 2377, 2434, 2424, 2466, 2422]
ch1 : [3195, 3193, 3196, 3190, 3199, 3190, 3193, 3193, 3189, 3195]
ch2 : [1555, 1557, 1558, 1542, 1551, 1558, 1558, 1566, 1560, 1558]
ch3 : [2771, 2776, 2778, 2765, 2775, 2772, 2776, 2774, 2772, 2772]
ch0 : [2380, 2513, 2443, 2259, 2403, 2414, 2498, 2444, 2411, 2501]
ch1 : [3191, 3182, 3192, 3195, 3196, 3191, 3187, 3196, 3195, 3196]
ch2 : [1563, 1546, 1543, 1560, 1563, 1565, 1558, 1562, 1554, 1558]
ch3 : [2772, 2772, 2767, 2775, 2775, 2778, 2771, 2772, 2771, 2773]
ch0 : [2507, 2226, 2382, 2426, 2424, 2449, 2428, 2378, 2506, 2426]
ch1 : [3195, 3195, 3196, 3191, 3194, 3193, 3191, 3197, 3191, 3196]
ch2 : [1549, 1551, 1557, 1557, 1566, 1561, 1562, 1573, 1555, 1543]
ch3 : [2772, 2774, 2763, 2776, 2782, 2773, 2774, 2779, 2771, 2769]
ch0 : [2244, 2413, 2445, 2499, 2433, 2392, 2497, 2503, 2218, 2377]
ch1 : [3193, 3194, 3192, 3190, 3195, 3194, 3193, 3191, 3200, 3189]
ch2 : [1561, 1567, 1559, 1559, 1558, 1556, 1560, 1549, 1549, 1562]
ch3 : [2773, 2780, 2774, 2774, 2772, 2772, 2772, 2769, 2777, 2776]
ch0 : [2427, 2422, 2438, 2396, 2382, 2506, 2475, 2257, 2390, 2431]
ch1 : [3193, 3192, 3192, 3199, 3197, 3194, 3195, 3196, 3193, 3196]
ch2 : [1567, 1561, 1561, 1559, 1558, 1557, 1544, 1560, 1566, 1563]
ch3 : [2776, 2773, 2774, 2771, 2767, 2773, 2773, 2772, 2777, 2776]
ch0 : [2492, 2431, 2395, 2471, 2504, 2238, 2380, 2427, 2425, 2449]
ch1 : [3182, 3199, 3196, 3196, 3193, 3197, 3191, 3194, 3191, 3195]
ch2 : [1562, 1561, 1558, 1560, 1547, 1548, 1564, 1566, 1565, 1562]
ch3 : [2778, 2776, 2762, 2773, 2767, 2774, 2777, 2775, 2775, 2772]
ch0 : [2417, 2402, 2503, 2401, 2209, 2378, 2435, 2498, 2463, 2403]
ch1 : [3192, 3194, 3196, 3193, 3198, 3203, 3196, 3190, 3187, 3191]
ch2 : [1560, 1558, 1553, 1544, 1558, 1567, 1562, 1564, 1558, 1565]
ch3 : [2779, 2774, 2775, 2771, 2774, 2779, 2775, 2776, 2772, 2774]
ch0 : [2435, 2504, 2306, 2363, 2432, 2415, 2448, 2413, 2394, 2502]
ch1 : [3200, 3196, 3194, 3191, 3197, 3190, 3192, 3192, 3194, 3195]
ch2 : [1564, 1553, 1550, 1569, 1564, 1566, 1558, 1567, 1564, 1555]
ch3 : [2775, 2777, 2775, 2775, 2776, 2774, 2774, 2774, 2775, 2773]
ch0 : [2459, 2206, 2382, 2422, 2495, 2449, 2392, 2402, 2497, 2359]
ch1 : [3195, 3195, 3196, 3197, 3196, 3193, 3194, 3193, 3192, 3193]
ch2 : [1546, 1559, 1567, 1565, 1563, 1560, 1565, 1562, 1549, 1563]
ch3 : [2776, 2774, 2777, 2777, 2776, 2776, 2774, 2774, 2777, 2774]
ch0 : [2356, 2428, 2415, 2433, 2415, 2399, 2505, 2467, 2191, 2384]
ch1 : [3191, 3188, 3195, 3196, 3185, 3183, 3192, 3189, 3196, 3190]
ch2 : [1568, 1565, 1563, 1562, 1562, 1563, 1554, 1543, 1563, 1567]
ch3 : [2778, 2780, 2776, 2775, 2776, 2775, 2771, 2773, 2778, 2780]
ch0 : [2461, 2432, 2430, 2505, 2450, 2178, 2380, 2418, 2480, 2454]
ch1 : [3196, 3191, 3194, 3188, 3195, 3190, 3195, 3196, 3196, 3196]
ch2 : [1574, 1562, 1563, 1543, 1547, 1562, 1568, 1566, 1558, 1565]
ch3 : [2778, 2776, 2775, 2777, 2772, 2764, 2776, 2779, 2776, 2767]
ch0 : [2418, 2389, 2501, 2433, 2349, 2415, 2414, 2444, 2450, 2410]
ch1 : [3192, 3195, 3193, 3196, 3195, 3196, 3192, 3196, 3200, 3195]
ch2 : [1561, 1562, 1550, 1552, 1560, 1566, 1570, 1565, 1566, 1566]
ch3 : [2775, 2775, 2776, 2775, 2771, 2781, 2779, 2776, 2776, 2778]
ch0 : [2503, 2419, 2181, 2372, 2433, 2440, 2454, 2384, 2397, 2500]
ch1 : [3195, 3192, 3193, 3197, 3195, 3194, 3190, 3192, 3191, 3192]
ch2 : [1561, 1551, 1555, 1572, 1567, 1571, 1561, 1567, 1566, 1556]
ch3 : [2775, 2775, 2774, 2781, 2781, 2778, 2774, 2773, 2775, 2775]
ch0 : [2488, 2344, 2418, 2428, 2454, 2418, 2422, 2502, 2437, 2144]
ch1 : [3191, 3194, 3191, 3197, 3193, 3192, 3182, 3193, 3191, 3196]
ch2 : [1556, 1565, 1562, 1566, 1570, 1569, 1568, 1557, 1549, 1559]
ch3 : [2772, 2777, 2777, 2776, 2776, 2775, 2775, 2774, 2771, 2777]
ch0 : [2372, 2427, 2444, 2445, 2404, 2384, 2503, 2473, 2320, 2428]
ch1 : [3194, 3197, 3196, 3193, 3195, 3200, 3196, 3193, 3204, 3191]
ch2 : [1563, 1566, 1565, 1564, 1562, 1563, 1552, 1549, 1560, 1568]
ch3 : [2778, 2779, 2776, 2775, 2776, 2777, 2774, 2775, 2778, 2780]
ch0 : [2412, 2448, 2421, 2394, 2504, 2430, 2139, 2354, 2407, 2429]
ch1 : [3192, 3197, 3187, 3196, 3191, 3196, 3196, 3197, 3193, 3192]
ch2 : [1566, 1565, 1553, 1566, 1561, 1548, 1554, 1568, 1568, 1564]
ch3 : [2780, 2774, 2779, 2770, 2775, 2775, 2776, 2779, 2780, 2778]
ch0 : [2455, 2405, 2396, 2498, 2434, 2308, 2410, 2414, 2440, 2439]
ch1 : [3202, 3193, 3193, 3196, 3194, 3195, 3195, 3192, 3187, 3196]
ch2 : [1577, 1563, 1565, 1554, 1552, 1564, 1568, 1569, 1565, 1569]
ch3 : [2777, 2774, 2775, 2776, 2774, 2791, 2775, 2780, 2774, 2776]
ch0 : [2399, 2499, 2458, 2130, 2349, 2419, 2430, 2468, 2385, 2389]
ch1 : [3193, 3193, 3192, 3198, 3189, 3191, 3189, 3187, 3195, 3193]
ch2 : [1548, 1563, 1547, 1556, 1566, 1566, 1571, 1562, 1563, 1564]
ch3 : [2775, 2784, 2774, 2776, 2782, 2778, 2779, 2778, 2773, 2779]
ch0 : [2500, 2452, 2306, 2403, 2420, 2444, 2421, 2375, 2443, 2474]
ch1 : [3195, 3194, 3199, 3196, 3192, 3194, 3195, 3193, 3190, 3192]
ch2 : [1558, 1552, 1564, 1563, 1557, 1561, 1566, 1564, 1567, 1549]
ch3 : [2766, 2776, 2777, 2778, 2779, 2778, 2779, 2777, 2776, 2778]
ch0 : [2112, 2330, 2407, 2438, 2468, 2404, 2397, 2500, 2462, 2293]
ch1 : [3195, 3194, 3192, 3194, 3179, 3191, 3193, 3195, 3190, 3193]
ch2 : [1556, 1568, 1566, 1567, 1560, 1577, 1562, 1556, 1552, 1562]
ch3 : [2775, 2780, 2784, 2773, 2774, 2774, 2776, 2774, 2775, 2780]
ch0 : [2428, 2463, 2397, 2389, 2499, 2467, 2287, 2390, 2420, 2445]
ch1 : [3193, 3193, 3196, 3193, 3193, 3191, 3196, 3197, 3185, 3193]
ch2 : [1566, 1561, 1556, 1559, 1559, 1548, 1561, 1566, 1565, 1564]
ch3 : [2779, 2778, 2777, 2775, 2775, 2777, 2779, 2780, 2780, 2778]
ch0 : [2404, 2380, 2338, 2468, 2122, 2318, 2409, 2416, 2476, 2392]
ch1 : [3196, 3193, 3191, 3196, 3196, 3194, 3192, 3202, 3192, 3194]
ch2 : [1561, 1562, 1562, 1548, 1551, 1571, 1567, 1568, 1564, 1568]
ch3 : [2780, 2777, 2772, 2768, 2776, 2775, 2778, 2776, 2776, 2775]
ch0 : [2406, 2495, 2426, 2280, 2404, 2415, 2440, 2421, 2384, 2344]
ch1 : [3196, 3192, 3193, 3193, 3191, 3188, 3205, 3190, 3193, 3196]
ch2 : [1567, 1557, 1547, 1562, 1568, 1571, 1565, 1561, 1564, 1563]
ch3 : [2782, 2778, 2776, 2766, 2779, 2779, 2781, 2773, 2778, 2779]
ch0 : [2449, 2204, 2314, 2403, 2427, 2471, 2386, 2397, 2495, 2475]
ch1 : [3192, 3193, 3190, 3183, 3186, 3191, 3188, 3191, 3193, 3191]
ch2 : [1551, 1548, 1566, 1567, 1562, 1562, 1561, 1565, 1557, 1551]
ch3 : [2775, 2776, 2777, 2784, 2779, 2774, 2776, 2775, 2773, 2777]
ch0 : [2257, 2392, 2413, 2431, 2426, 2380, 2349, 2462, 2260, 2298]
ch1 : [3196, 3193, 3193, 3194, 3199, 3192, 3196, 3190, 3194, 3191]
ch2 : [1558, 1564, 1567, 1560, 1565, 1560, 1562, 1552, 1546, 1567]
ch3 : [2782, 2786, 2782, 2779, 2774, 2781, 2779, 2776, 2772, 2780]
ch0 : [2404, 2423, 2457, 2410, 2403, 2495, 2457, 2235, 2397, 2411]
ch1 : [3192, 3194, 3197, 3193, 3193, 3187, 3194, 3196, 3193, 3192]
ch2 : [1569, 1564, 1563, 1559, 1566, 1560, 1546, 1560, 1567, 1569]
ch3 : [2783, 2780, 2777, 2773, 2781, 2778, 2777, 2781, 2784, 2780]
ch0 : [2447, 2438, 2382, 2332, 2492, 2318, 2283, 2388, 2427, 2472]
ch1 : [3193, 3205, 3191, 3200, 3196, 3197, 3190, 3191, 3190, 3195]
ch2 : [1566, 1569, 1564, 1565, 1549, 1547, 1565, 1578, 1568, 1562]
ch3 : [2780, 2781, 2775, 2779, 2777, 2776, 2780, 2780, 2780, 2781]
ch0 : [2396, 2407, 2488, 2449, 2233, 2383, 2411, 2432, 2428, 2387]
ch1 : [3192, 3195, 3193, 3191, 3197, 3197, 3192, 3192, 3195, 3190]
ch2 : [1563, 1561, 1554, 1551, 1559, 1563, 1569, 1562, 1567, 1558]
ch3 : [2776, 2779, 2779, 2779, 2780, 2781, 2780, 2785, 2777, 2780]
ch0 : [2343, 2493, 2329, 2275, 2389, 2411, 2479, 2383, 2402, 2492]
ch1 : [3195, 3200, 3194, 3195, 3193, 3192, 3192, 3191, 3193, 3196]
ch2 : [1564, 1549, 1553, 1567, 1568, 1583, 1561, 1567, 1565, 1562]
ch3 : [2766, 2772, 2775, 2790, 2782, 2779, 2780, 2777, 2781, 2767]
ch0 : [2465, 2212, 2383, 2410, 2410, 2431, 2383, 2361, 2486, 2433]
ch1 : [3195, 3199, 3204, 3193, 3198, 3193, 3195, 3195, 3195, 3194]
ch2 : [1552, 1560, 1570, 1565, 1568, 1567, 1578, 1566, 1553, 1549]
ch3 : [2779, 2780, 2781, 2781, 2781, 2779, 2783, 2774, 2778, 2775]
ch0 : [2411, 2393, 2428, 2389, 2345, 2487, 2410, 2252, 2388, 2419]
ch1 : [3194, 3195, 3193, 3193, 3193, 3193, 3190, 3187, 3191, 3187]
ch2 : [1573, 1565, 1565, 1566, 1566, 1553, 1550, 1566, 1575, 1566]
ch3 : [2779, 2791, 2779, 2779, 2781, 2775, 2775, 2780, 2782, 2783]
ch0 : [2476, 2409, 2395, 2490, 2474, 2200, 2365, 2405, 2397, 2429]
ch1 : [3196, 3192, 3194, 3193, 3192, 3193, 3200, 3191, 3193, 3192]
ch2 : [1564, 1562, 1563, 1563, 1548, 1555, 1568, 1565, 1567, 1564]
ch3 : [2781, 2778, 2778, 2780, 2776, 2777, 2781, 2780, 2781, 2779]
ch0 : [2378, 2355, 2494, 2376, 2255, 2383, 2414, 2478, 2399, 2384]
ch1 : [3192, 3194, 3200, 3193, 3193, 3187, 3198, 3190, 3193, 3195]
ch2 : [1560, 1563, 1557, 1550, 1568, 1568, 1568, 1569, 1567, 1581]
ch3 : [2776, 2778, 2781, 2777, 2776, 2783, 2781, 2775, 2778, 2779]
ch0 : [2483, 2471, 2197, 2379, 2396, 2399, 2433, 2397, 2378, 2483]
ch1 : [3192, 3189, 3197, 3190, 3189, 3187, 3195, 3190, 3187, 3192]
ch2 : [1566, 1551, 1556, 1570, 1569, 1566, 1567, 1566, 1566, 1559]
ch3 : [2778, 2779, 2783, 2781, 2782, 2783, 2779, 2793, 2778, 2791]
ch0 : [2444, 2248, 2377, 2412, 2499, 2423, 2376, 2483, 2461, 2190]
ch1 : [3193, 3195, 3191, 3193, 3192, 3190, 3196, 3195, 3196, 3197]
ch2 : [1549, 1571, 1572, 1569, 1567, 1560, 1565, 1564, 1552, 1556]
ch3 : [2775, 2780, 2789, 2783, 2780, 2775, 2779, 2782, 2780, 2779]
ch0 : [2358, 2410, 2398, 2422, 2391, 2355, 2496, 2396, 2213, 2371]
ch1 : [3192, 3194, 3193, 3192, 3192, 3192, 3196, 3187, 3197, 3194]
ch2 : [1568, 1573, 1567, 1566, 1564, 1566, 1555, 1548, 1579, 1579]
ch3 : [2771, 2781, 2783, 2777, 2779, 2782, 2781, 2784, 2779, 2785]
ch0 : [2398, 2481, 2415, 2367, 2434, 2493, 2213, 2350, 2393, 2389]
ch1 : [3194, 3195, 3196, 3195, 3192, 3191, 3191, 3194, 3196, 3193]
ch2 : [1567, 1566, 1565, 1564, 1563, 1555, 1561, 1568, 1571, 1571]
ch3 : [2776, 2783, 2780, 2779, 2782, 2779, 2775, 2785, 2787, 2783]
ch0 : [2413, 2408, 2370, 2492, 2385, 2215, 2379, 2402, 2484, 2408]
ch1 : [3193, 3192, 3195, 3193, 3193, 3197, 3188, 3192, 3195, 3190]
ch2 : [1569, 1582, 1573, 1561, 1553, 1567, 1576, 1572, 1566, 1572]
ch3 : [2782, 2783, 2779, 2779, 2781, 2781, 2775, 2785, 2780, 2780]
ch0 : [2374, 2385, 2490, 2294, 2345, 2405, 2388, 2429, 2392, 2378]
ch1 : [3206, 3195, 3193, 3193, 3183, 3194, 3192, 3182, 3193, 3194]
ch2 : [1568, 1564, 1547, 1554, 1571, 1576, 1564, 1569, 1561, 1561]
ch3 : [2779, 2782, 2775, 2779, 2784, 2782, 2781, 2779, 2778, 2780]
ch0 : [2486, 2441, 2206, 2379, 2400, 2481, 2438, 2372, 2380, 2488]
ch1 : [3193, 3195, 3195, 3192, 3192, 3196, 3187, 3208, 3190, 3187]
ch2 : [1557, 1540, 1563, 1560, 1562, 1555, 1552, 1558, 1556, 1546]
ch3 : [2779, 2778, 2781, 2784, 2786, 2782, 2781, 2777, 2782, 2779]
ch0 : [2361, 2332, 2407, 2409, 2418, 2397, 2390, 2489, 2478, 2164]
ch1 : [3195, 3193, 3195, 3195, 3191, 3193, 3197, 3196, 3192, 3191]
ch2 : [1542, 1556, 1561, 1549, 1553, 1552, 1553, 1550, 1537, 1561]
ch3 : [2783, 2788, 2779, 2785, 2782, 2780, 2780, 2779, 2778, 2779]
ch0 : [2355, 2394, 2480, 2422, 2372, 2366, 2486, 2351, 2337, 2391]
ch1 : [3192, 3192, 3193, 3196, 3187, 3196, 3201, 3196, 3197, 3196]
ch2 : [1565, 1565, 1559, 1563, 1566, 1573, 1555, 1554, 1568, 1571]
ch3 : [2784, 2780, 2781, 2776, 2775, 2778, 2778, 2773, 2783, 2782]
ch0 : [2377, 2422, 2397, 2379, 2486, 2443, 2148, 2341, 2393, 2440]
ch1 : [3192, 3194, 3193, 3191, 3192, 3193, 3196, 3192, 3193, 3196]
ch2 : [1562, 1568, 1554, 1563, 1556, 1545, 1560, 1562, 1544, 1558]
ch3 : [2777, 2782, 2780, 2779, 2780, 2780, 2784, 2782, 2782, 2777]
ch0 : [2431, 2374, 2363, 2481, 2388, 2305, 2378, 2389, 2411, 2387]
ch1 : [3192, 3192, 3194, 3193, 3196, 3195, 3194, 3193, 3193, 3194]
ch2 : [1563, 1561, 1552, 1542, 1537, 1556, 1556, 1560, 1556, 1552]
ch3 : [2779, 2780, 2788, 2780, 2781, 2783, 2772, 2783, 2781, 2780]
ch0 : [2377, 2481, 2459, 2125, 2337, 2394, 2396, 2439, 2380, 2353]
ch1 : [3200, 3193, 3193, 3197, 3197, 3196, 3193, 3192, 3197, 3194]
ch2 : [1546, 1540, 1522, 1534, 1545, 1545, 1542, 1539, 1535, 1534]
ch3 : [2781, 2779, 2775, 2781, 2784, 2794, 2783, 2778, 2776, 2778]
ch0 : [2479, 2440, 2307, 2383, 2397, 2420, 2385, 2393, 2466, 2484]
ch1 : [3194, 3194, 3195, 3193, 3196, 3191, 3193, 3187, 3194, 3195]
ch2 : [1525, 1521, 1535, 1537, 1535, 1533, 1534, 1533, 1526, 1517]
ch3 : [2779, 2779, 2782, 2789, 2781, 2781, 2780, 2783, 2789, 2779]
ch0 : [2118, 2341, 2400, 2407, 2443, 2369, 2361, 2481, 2408, 2308]
ch1 : [3193, 3197, 3199, 3193, 3196, 3194, 3190, 3193, 3197, 3195]
ch2 : [1532, 1536, 1539, 1530, 1529, 1524, 1529, 1513, 1509, 1521]
ch3 : [2775, 2784, 2786, 2785, 2779, 2781, 2779, 2779, 2789, 2783]
ch0 : [2399, 2401, 2416, 2403, 2373, 2483, 2366, 2121, 2347, 2401]
ch1 : [3193, 3190, 3197, 3179, 3208, 3194, 3193, 3194, 3194, 3192]
ch2 : [1516, 1522, 1520, 1515, 1509, 1511, 1494, 1501, 1514, 1510]
ch3 : [2786, 2781, 2792, 2779, 2780, 2780, 2777, 2779, 2780, 2783]
ch0 : [2418, 2445, 2384, 2370, 2483, 2478, 2300, 2397, 2392, 2433]
ch1 : [3192, 3189, 3194, 3198, 3195, 3192, 3195, 3194, 3189, 3196]
ch2 : [1505, 1502, 1502, 1500, 1506, 1490, 1497, 1499, 1496, 1501]
ch3 : [2789, 2771, 2774, 2792, 2776, 2784, 2779, 2776, 2780, 2782]
ch0 : [2408, 2364, 2482, 2442, 2121, 2342, 2396, 2416, 2447, 2372]
ch1 : [3192, 3193, 3191, 3194, 3195, 3195, 3179, 3192, 3197, 3197]
ch2 : [1512, 1491, 1486, 1474, 1483, 1490, 1490, 1490, 1486, 1485]
ch3 : [2778, 2782, 2780, 2779, 2777, 2780, 2778, 2782, 2776, 2778]
ch0 : [2487, 2084, 2313, 2388, 2422, 2442, 2378, 2389, 2486, 2450]
ch1 : [3192, 3195, 3197, 3193, 3190, 3192, 3203, 3193, 3187, 3192]
ch2 : [1459, 1472, 1482, 1465, 1480, 1476, 1471, 1469, 1465, 1477]
ch3 : [2776, 2775, 2781, 2781, 2775, 2789, 2776, 2783, 2778, 2778]
ch0 : [2247, 2392, 2400, 2425, 2403, 2358, 2353, 2463, 2090, 2317]
ch1 : [3195, 3194, 3192, 3195, 3194, 3195, 3193, 3193, 3198, 3195]
ch2 : [1471, 1478, 1476, 1474, 1473, 1474, 1474, 1453, 1466, 1482]
ch3 : [2781, 2774, 2781, 2775, 2779, 2777, 2776, 2776, 2782, 2782]
ch0 : [2378, 2398, 2447, 2386, 2367, 2480, 2450, 2254, 2384, 2399]
ch1 : [3193, 3193, 3191, 3195, 3196, 3196, 3192, 3197, 3198, 3190]
ch2 : [1483, 1478, 1470, 1471, 1473, 1471, 1468, 1475, 1483, 1477]
ch3 : [2783, 2792, 2777, 2776, 2784, 2780, 2779, 2778, 2781, 2777]
ch0 : [2423, 2418, 2360, 2353, 2462, 2096, 2311, 2388, 2406, 2450]
ch1 : [3194, 3196, 3191, 3197, 3191, 3198, 3197, 3196, 3193, 3196]
ch2 : [1484, 1484, 1476, 1489, 1460, 1471, 1482, 1479, 1479, 1479]
ch3 : [2783, 2779, 2777, 2780, 2776, 2777, 2782, 2781, 2781, 2780]
ch0 : [2370, 2374, 2482, 2395, 2270, 2383, 2382, 2413, 2408, 2351]
ch1 : [3192, 3191, 3190, 3193, 3197, 3193, 3191, 3195, 3197, 3192]
ch2 : [1477, 1473, 1469, 1465, 1474, 1486, 1475, 1480, 1479, 1480]
ch3 : [2775, 2782, 2781, 2781, 2780, 2781, 2782, 2784, 2781, 2780]
ch0 : [2333, 2433, 2120, 2298, 2383, 2412, 2477, 2362, 2379, 2477]
ch1 : [3195, 3190, 3198, 3193, 3191, 3185, 3193, 3196, 3192, 3195]
ch2 : [1479, 1473, 1465, 1484, 1484, 1481, 1478, 1477, 1475, 1474]
ch3 : [2781, 2777, 2780, 2785, 2782, 2784, 2780, 2771, 2783, 2784]
ch0 : [2431, 2252, 2386, 2399, 2423, 2386, 2356, 2329, 2429, 2228]
ch1 : [3188, 3195, 3192, 3196, 3193, 3191, 3193, 3197, 3197, 3197]
ch2 : [1468, 1478, 1485, 1499, 1482, 1486, 1484, 1480, 1469, 1471]
ch3 : [2780, 2782, 2780, 2784, 2783, 2783, 2785, 2784, 2780, 2780]
ch0 : [2291, 2381, 2408, 2464, 2370, 2387, 2478, 2425, 2242, 2379]
ch1 : [3196, 3190, 3188, 3191, 3196, 3193, 3196, 3193, 3194, 3192]
ch2 : [1486, 1491, 1484, 1486, 1478, 1486, 1481, 1475, 1488, 1490]
ch3 : [2784, 2784, 2780, 2788, 2779, 2781, 2782, 2782, 2782, 2782]
ch0 : [2390, 2406, 2401, 2360, 2328, 2454, 2238, 2270, 2374, 2391]
ch1 : [3197, 3192, 3193, 3194, 3196, 3187, 3197, 3192, 3191, 3190]
ch2 : [1494, 1493, 1488, 1491, 1497, 1478, 1479, 1502, 1500, 1502]
ch3 : [2786, 2785, 2782, 2794, 2779, 2784, 2779, 2798, 2783, 2786]
ch0 : [2445, 2361, 2400, 2474, 2431, 2230, 2363, 2392, 2418, 2375]
ch1 : [3200, 3191, 3196, 3194, 3192, 3191, 3195, 3192, 3193, 3196]
ch2 : [1491, 1500, 1497, 1478, 1482, 1500, 1505, 1505, 1504, 1505]
ch3 : [2792, 2781, 2783, 2779, 2778, 2784, 2783, 2785, 2785, 2795]
ch0 : [2361, 2326, 2475, 2305, 2267, 2371, 2396, 2433, 2362, 2391]
ch1 : [3195, 3195, 3192, 3199, 3195, 3197, 3192, 3196, 3197, 3192]
ch2 : [1503, 1502, 1493, 1494, 1510, 1512, 1505, 1508, 1506, 1509]
ch3 : [2788, 2779, 2783, 2784, 2786, 2785, 2786, 2784, 2781, 2781]
ch0 : [2484, 2387, 2216, 2356, 2387, 2407, 2418, 2379, 2334, 2473]
ch1 : [3194, 3192, 3193, 3193, 3194, 3194, 3181, 3192, 3194, 3190]
ch2 : [1509, 1498, 1507, 1513, 1512, 1511, 1511, 1511, 1507, 1501]
ch3 : [2780, 2779, 2782, 2778, 2784, 2784, 2783, 2782, 2782, 2780]
ch0 : [2344, 2259, 2377, 2412, 2465, 2396, 2393, 2480, 2470, 2197]
ch1 : [3194, 3193, 3196, 3195, 3193, 3194, 3194, 3193, 3189, 3195]
ch2 : [1497, 1503, 1517, 1516, 1512, 1514, 1499, 1511, 1502, 1508]
ch3 : [2789, 2785, 2788, 2787, 2784, 2779, 2783, 2781, 2784, 2780]
ch0 : [2357, 2414, 2405, 2425, 2370, 2336, 2477, 2323, 2255, 2386]
ch1 : [3196, 3191, 3196, 3180, 3200, 3197, 3190, 3195, 3193, 3193]
ch2 : [1514, 1517, 1517, 1511, 1516, 1517, 1502, 1504, 1517, 1520]
ch3 : [2783, 2785, 2782, 2782, 2784, 2783, 2786, 2783, 2784, 2786]
ch0 : [2406, 2478, 2401, 2394, 2484, 2469, 2207, 2361, 2411, 2380]
ch1 : [3192, 3188, 3194, 3192, 3195, 3196, 3195, 3192, 3194, 3191]
ch2 : [1518, 1516, 1513, 1503, 1514, 1504, 1495, 1524, 1519, 1523]
ch3 : [2785, 2775, 2784, 2784, 2779, 2781, 2786, 2786, 2770, 2785]
ch0 : [2427, 2372, 2340, 2443, 2391, 2249, 2376, 2399, 2474, 2391]
ch1 : [3196, 3193, 3195, 3195, 3192, 3196, 3195, 3193, 3193, 3192]
ch2 : [1524, 1518, 1509, 1505, 1503, 1527, 1524, 1520, 1533, 1522]
ch3 : [2783, 2792, 2783, 2779, 2781, 2786, 2788, 2786, 2782, 2784]
ch0 : [2377, 2480, 2446, 2193, 2349, 2394, 2392, 2421, 2374, 2336]
ch1 : [3193, 3191, 3196, 3194, 3201, 3194, 3191, 3192, 3194, 3197]
ch2 : [1516, 1519, 1510, 1512, 1524, 1527, 1512, 1531, 1519, 1522]
ch3 : [2780, 2788, 2783, 2784, 2783, 2788, 2783, 2786, 2779, 2785]
ch0 : [2477, 2384, 2227, 2366, 2399, 2467, 2399, 2357, 2475, 2482]
ch1 : [3195, 3193, 3194, 3202, 3192, 3195, 3193, 3195, 3192, 3191]
ch2 : [1504, 1503, 1520, 1526, 1530, 1532, 1518, 1529, 1526, 1513]
ch3 : [2785, 2782, 2789, 2780, 2789, 2783, 2783, 2783, 2783, 2781]
ch0 : [2187, 2346, 2386, 2385, 2414, 2379, 2355, 2475, 2399, 2213]
ch1 : [3200, 3190, 3192, 3191, 3193, 3193, 3193, 3192, 3196, 3178]
ch2 : [1519, 1530, 1531, 1524, 1523, 1529, 1524, 1516, 1505, 1523]
ch3 : [2792, 2791, 2787, 2783, 2783, 2785, 2785, 2782, 2783, 2785]
ch0 : [2381, 2397, 2472, 2403, 2372, 2476, 2459, 2182, 2350, 2391]
ch1 : [3191, 3206, 3193, 3193, 3197, 3196, 3193, 3194, 3197, 3194]
ch2 : [1528, 1530, 1518, 1523, 1523, 1523, 1510, 1520, 1528, 1532]
ch3 : [2784, 2787, 2790, 2783, 2783, 2784, 2786, 2786, 2788, 2786]
ch0 : [2406, 2374, 2435, 2479, 2190, 2335, 2387, 2386, 2416, 2369]
ch1 : [3192, 3197, 3196, 3191, 3197, 3196, 3193, 3200, 3192, 3185]
ch2 : [1510, 1525, 1519, 1516, 1514, 1531, 1529, 1530, 1526, 1528]
ch3 : [2787, 2783, 2787, 2787, 2783, 2790, 2783, 2788, 2788, 2787]
ch0 : [2350, 2475, 2406, 2195, 2353, 2402, 2471, 2414, 2366, 2400]
ch1 : [3196, 3193, 3193, 3190, 3194, 3192, 3192, 3192, 3195, 3192]
ch2 : [1526, 1516, 1504, 1510, 1532, 1527, 1525, 1522, 1526, 1524]
ch3 : [2786, 2784, 2783, 2785, 2788, 2791, 2785, 2783, 2786, 2786]
ch0 : [2478, 2225, 2329, 2390, 2381, 2404, 2368, 2362, 2484, 2468]
ch1 : [3194, 3195, 3195, 3196, 3185, 3191, 3192, 3193, 3196, 3196]
ch2 : [1515, 1510, 1527, 1532, 1530, 1529, 1525, 1518, 1507, 1507]
ch3 : [2781, 2784, 2783, 2789, 2786, 2787, 2790, 2786, 2788, 2784]
ch0 : [2194, 2347, 2395, 2471, 2415, 2354, 2390, 2476, 2291, 2326]
ch1 : [3194, 3192, 3196, 3201, 3190, 3187, 3191, 3187, 3196, 3190]
ch2 : [1524, 1538, 1531, 1528, 1527, 1524, 1529, 1511, 1513, 1523]
ch3 : [2779, 2785, 2788, 2784, 2782, 2783, 2786, 2786, 2788, 2788]
ch0 : [2396, 2378, 2423, 2371, 2379, 2474, 2395, 2162, 2359, 2391]
ch1 : [3188, 3194, 3193, 3197, 3191, 3194, 3195, 3194, 3197, 3195]
ch2 : [1529, 1524, 1525, 1522, 1535, 1518, 1513, 1527, 1532, 1530]
ch3 : [2788, 2782, 2786, 2786, 2786, 2789, 2782, 2789, 2788, 2796]
ch0 : [2476, 2429, 2360, 2374, 2476, 2361, 2339, 2394, 2390, 2416]
ch1 : [3192, 3191, 3196, 3180, 3195, 3195, 3196, 3187, 3195, 3193]
ch2 : [1532, 1525, 1527, 1529, 1516, 1517, 1529, 1530, 1531, 1531]
ch3 : [2787, 2783, 2788, 2786, 2787, 2788, 2789, 2793, 2786, 2788]
ch0 : [2372, 2379, 2480, 2458, 2149, 2360, 2399, 2471, 2431, 2361]
ch1 : [3194, 3193, 3190, 3193, 3198, 3197, 3192, 3192, 3187, 3195]
ch2 : [1529, 1525, 1523, 1511, 1526, 1534, 1535, 1527, 1532, 1526]
ch3 : [2787, 2787, 2786, 2783, 2788, 2789, 2774, 2794, 2783, 2783]
ch0 : [2371, 2449, 2338, 2316, 2397, 2392, 2412, 2393, 2394, 2485]
ch1 : [3194, 3192, 3194, 3196, 3196, 3196, 3196, 3196, 3192, 3196]
ch2 : [1527, 1521, 1518, 1530, 1529, 1535, 1529, 1531, 1534, 1526]
ch3 : [2788, 2772, 2786, 2788, 2789, 2785, 2778, 2789, 2790, 2796]
ch0 : [2372, 2152, 2351, 2405, 2441, 2425, 2378, 2370, 2485, 2408]
ch1 : [3190, 3189, 3189, 3193, 3197, 3193, 3197, 3196, 3193, 3192]
ch2 : [1521, 1528, 1536, 1534, 1532, 1530, 1530, 1531, 1520, 1510]
ch3 : [2786, 2784, 2788, 2790, 2790, 2786, 2776, 2792, 2783, 2786]
ch0 : [2322, 2404, 2387, 2426, 2373, 2368, 2482, 2462, 2132, 2338]
ch1 : [3191, 3192, 3191, 3193, 3193, 3197, 3192, 3192, 3199, 3192]
ch2 : [1533, 1535, 1519, 1536, 1533, 1533, 1530, 1514, 1529, 1542]
ch3 : [2788, 2792, 2787, 2791, 2787, 2787, 2786, 2789, 2785, 2791]
ch0 : [2387, 2409, 2443, 2376, 2363, 2485, 2426, 2293, 2387, 2386]
ch1 : [3192, 3192, 3196, 3193, 3189, 3193, 3190, 3191, 3194, 3196]
ch2 : [1534, 1535, 1533, 1533, 1534, 1519, 1516, 1538, 1542, 1536]
ch3 : [2788, 2790, 2785, 2785, 2788, 2786, 2786, 2790, 2791, 2789]
ch0 : [2415, 2399, 2394, 2480, 2387, 2132, 2339, 2396, 2416, 2432]
ch1 : [3192, 3191, 3198, 3194, 3196, 3200, 3190, 3192, 3195, 3193]
ch2 : [1537, 1545, 1538, 1535, 1519, 1531, 1543, 1546, 1538, 1538]
ch3 : [2792, 2786, 2786, 2788, 2785, 2788, 2790, 2796, 2788, 2788]
ch0 : [2380, 2361, 2485, 2395, 2299, 2402, 2398, 2425, 2398, 2376]
ch1 : [3192, 3193, 3195, 3191, 3194, 3191, 3192, 3191, 3186, 3192]
ch2 : [1536, 1535, 1529, 1523, 1537, 1544, 1544, 1544, 1538, 1534]
ch3 : [2789, 2788, 2787, 2786, 2791, 2788, 2790, 2792, 2779, 2787]
ch0 : [2482, 2429, 2098, 2326, 2400, 2410, 2444, 2375, 2374, 2479]
ch1 : [3191, 3188, 3196, 3193, 3196, 3191, 3185, 3192, 3196, 3187]
ch2 : [1535, 1521, 1541, 1533, 1539, 1540, 1537, 1535, 1535, 1526]
ch3 : [2788, 2783, 2787, 2791, 2792, 2791, 2782, 2784, 2788, 2791]
ch0 : [2417, 2284, 2377, 2389, 2415, 2403, 2357, 2480, 2462, 2094]
ch1 : [3196, 3195, 3195, 3191, 3194, 3191, 3187, 3186, 3187, 3183]
ch2 : [1518, 1539, 1540, 1540, 1539, 1541, 1536, 1536, 1522, 1533]
ch3 : [2788, 2795, 2791, 2789, 2794, 2788, 2788, 2800, 2797, 2786]
ch0 : [2334, 2394, 2406, 2433, 2364, 2374, 2468, 2451, 2279, 2379]
ch1 : [3188, 3193, 3188, 3193, 3193, 3196, 3197, 3190, 3196, 3187]
ch2 : [1541, 1544, 1538, 1540, 1536, 1538, 1527, 1522, 1534, 1535]
ch3 : [2791, 2794, 2790, 2786, 2789, 2784, 2789, 2790, 2789, 2793]
ch0 : [2391, 2419, 2403, 2372, 2473, 2384, 2094, 2322, 2380, 2414]
ch1 : [3196, 3194, 3193, 3195, 3193, 3195, 3197, 3195, 3196, 3193]
ch2 : [1541, 1540, 1538, 1538, 1540, 1524, 1529, 1543, 1541, 1538]
ch3 : [2792, 2791, 2792, 2781, 2789, 2789, 2787, 2793, 2795, 2792]
ch0 : [2415, 2365, 2372, 2480, 2455, 2269, 2386, 2407, 2420, 2412]
ch1 : [3193, 3191, 3200, 3187, 3195, 3195, 3183, 3190, 3191, 3191]
ch2 : [1538, 1537, 1534, 1529, 1522, 1540, 1539, 1538, 1545, 1537]
ch3 : [2789, 2790, 2791, 2793, 2786, 2781, 2794, 2787, 2791, 2790]
ch0 : [2362, 2341, 2482, 2068, 2314, 2396, 2402, 2453, 2372, 2369]
ch1 : [3194, 3205, 3191, 3200, 3195, 3196, 3195, 3193, 3197, 3193]
ch2 : [1533, 1538, 1516, 1530, 1546, 1545, 1538, 1536, 1538, 1536]
ch3 : [2794, 2792, 2785, 2793, 2791, 2793, 2798, 2786, 2794, 2789]
ch0 : [2475, 2456, 2271, 2380, 2395, 2418, 2397, 2345, 2340, 2416]
ch1 : [3196, 3195, 3183, 3193, 3193, 3193, 3193, 3187, 3190, 3192]
ch2 : [1530, 1525, 1535, 1541, 1545, 1541, 1538, 1540, 1538, 1526]
ch3 : [2790, 2793, 2791, 2792, 2791, 2793, 2790, 2790, 2791, 2789]
ch0 : [2090, 2309, 2386, 2400, 2419, 2360, 2387, 2479, 2419, 2260]
ch1 : [3197, 3195, 3192, 3194, 3191, 3194, 3193, 3181, 3198, 3200]
ch2 : [1529, 1543, 1537, 1538, 1541, 1540, 1536, 1531, 1524, 1538]
ch3 : [2788, 2794, 2793, 2792, 2791, 2793, 2792, 2786, 2787, 2793]
ch0 : [2375, 2398, 2420, 2401, 2365, 2334, 2427, 2097, 2315, 2388]
ch1 : [3192, 3194, 3197, 3193, 3197, 3198, 3196, 3197, 3190, 3190]
ch2 : [1543, 1550, 1540, 1540, 1539, 1541, 1527, 1526, 1542, 1540]
ch3 : [2792, 2789, 2788, 2792, 2792, 2792, 2792, 2783, 2790, 2792]
ch0 : [2399, 2429, 2373, 2376, 2479, 2413, 2248, 2378, 2395, 2401]
ch1 : [3193, 3195, 3191, 3190, 3187, 3191, 3196, 3191, 3196, 3193]
ch2 : [1544, 1538, 1539, 1542, 1532, 1531, 1541, 1544, 1539, 1544]
ch3 : [2791, 2791, 2787, 2790, 2787, 2788, 2793, 2791, 2791, 2803]
ch0 : [2400, 2358, 2325, 2479, 2181, 2283, 2374, 2407, 2437, 2374]
ch1 : [3190, 3191, 3190, 3194, 3199, 3197, 3196, 3195, 3193, 3183]
ch2 : [1541, 1540, 1541, 1528, 1529, 1544, 1543, 1543, 1540, 1538]
ch3 : [2785, 2794, 2793, 2788, 2789, 2794, 2792, 2792, 2783, 2789]
ch0 : [2381, 2477, 2444, 2238, 2369, 2403, 2414, 2429, 2380, 2345]
ch1 : [3193, 3196, 3194, 3196, 3196, 3193, 3195, 3193, 3193, 3192]
ch2 : [1540, 1534, 1526, 1541, 1544, 1544, 1542, 1540, 1543, 1539]
ch3 : [2795, 2790, 2788, 2793, 2795, 2796, 2790, 2792, 2780, 2794]
ch0 : [2477, 2249, 2284, 2385, 2411, 2450, 2363, 2387, 2479, 2448]
ch1 : [3193, 3193, 3198, 3196, 3191, 3191, 3192, 3195, 3192, 3191]
ch2 : [1525, 1527, 1545, 1547, 1542, 1543, 1543, 1542, 1534, 1526]
ch3 : [2788, 2788, 2792, 2796, 2797, 2789, 2791, 2789, 2789, 2788]
ch0 : [2236, 2361, 2397, 2422, 2412, 2362, 2326, 2481, 2307, 2263]
ch1 : [3194, 3194, 3194, 3202, 3193, 3194, 3193, 3190, 3193, 3193]
ch2 : [1542, 1548, 1559, 1548, 1542, 1544, 1538, 1524, 1524, 1544]
ch3 : [2795, 2809, 2793, 2793, 2793, 2778, 2792, 2792, 2789, 2796]
ch0 : [2375, 2413, 2442, 2381, 2383, 2478, 2437, 2232, 2358, 2388]
ch1 : [3198, 3192, 3182, 3193, 3191, 3193, 3196, 3197, 3196, 3192]
ch2 : [1552, 1544, 1538, 1539, 1561, 1540, 1529, 1539, 1547, 1547]
ch3 : [2798, 2795, 2791, 2790, 2787, 2793, 2791, 2787, 2796, 2795]
ch0 : [2413, 2411, 2369, 2328, 2482, 2294, 2265, 2364, 2401, 2455]
ch1 : [3194, 3192, 3196, 3187, 3195, 3192, 3197, 3196, 3195, 3192]
ch2 : [1546, 1544, 1544, 1543, 1527, 1533, 1547, 1547, 1544, 1545]
ch3 : [2802, 2805, 2793, 2797, 2788, 2790, 2792, 2796, 2794, 2792]
ch0 : [2392, 2389, 2479, 2466, 2206, 2353, 2387, 2396, 2407, 2374]
ch1 : [3194, 3194, 3191, 3187, 3197, 3193, 3196, 3193, 3193, 3196]
ch2 : [1542, 1545, 1541, 1530, 1537, 1547, 1544, 1545, 1544, 1545]
ch3 : [2790, 2789, 2792, 2789, 2791, 2791, 2796, 2797, 2791, 2792]
ch0 : [2442, 2194, 2354, 2384, 2382, 2402, 2372, 2335, 2477, 2402]
ch1 : [3192, 3193, 3194, 3191, 3191, 3193, 3196, 3195, 3196, 3194]
ch2 : [1533, 1536, 1547, 1547, 1550, 1548, 1543, 1549, 1537, 1529]
ch3 : [2793, 2790, 2800, 2794, 2794, 2793, 2792, 2790, 2792, 2792]
ch0 : [2243, 2380, 2389, 2469, 2395, 2371, 2479, 2465, 2208, 2343]
ch1 : [3199, 3191, 3191, 3191, 3194, 3193, 3196, 3192, 3196, 3191]
ch2 : [1546, 1549, 1548, 1544, 1543, 1545, 1540, 1535, 1544, 1549]
ch3 : [2791, 2797, 2802, 2794, 2792, 2793, 2795, 2791, 2793, 2791]
ch0 : [2396, 2380, 2399, 2358, 2323, 2449, 2375, 2236, 2364, 2395]
ch1 : [3193, 3191, 3189, 3193, 3194, 3192, 3193, 3193, 3193, 3195]
ch2 : [1549, 1548, 1545, 1546, 1545, 1533, 1529, 1545, 1551, 1552]
ch3 : [2796, 2795, 2793, 2791, 2794, 2789, 2789, 2794, 2797, 2793]
ch0 : [2464, 2373, 2360, 2477, 2433, 2181, 2338, 2390, 2372, 2396]
ch1 : [3193, 3194, 3198, 3192, 3195, 3197, 3195, 3196, 3192, 3194]
ch2 : [1546, 1543, 1546, 1545, 1533, 1538, 1549, 1556, 1553, 1549]
ch3 : [2798, 2796, 2789, 2797, 2789, 2796, 2796, 2791, 2799, 2794]
ch0 : [2364, 2327, 2480, 2386, 2222, 2352, 2388, 2481, 2395, 2361]
ch1 : [3191, 3208, 3190, 3195, 3195, 3195, 3196, 3193, 3196, 3189]
ch2 : [1555, 1546, 1538, 1530, 1538, 1552, 1547, 1546, 1545, 1542]
ch3 : [2796, 2795, 2791, 2796, 2797, 2795, 2799, 2796, 2793, 2796]
ch0 : [2476, 2446, 2175, 2332, 2391, 2382, 2400, 2366, 2331, 2464]
ch1 : [3194, 3188, 3194, 3192, 3194, 3191, 3195, 3189, 3193, 3197]
ch2 : [1545, 1533, 1532, 1549, 1550, 1549, 1548, 1543, 1549, 1534]
ch3 : [2796, 2789, 2792, 2797, 2802, 2797, 2797, 2800, 2802, 2796]
ch0 : [2330, 2388, 2379, 2415, 2356, 2346, 2436, 2396, 2209, 2351]
ch1 : [3192, 3195, 3196, 3192, 3195, 3187, 3192, 3197, 3196, 3198]
ch2 : [1549, 1553, 1554, 1546, 1545, 1550, 1535, 1531, 1547, 1551]
ch3 : [2797, 2805, 2798, 2798, 2796, 2800, 2792, 2792, 2795, 2796]
ch0 : [2384, 2465, 2389, 2359, 2441, 2470, 2182, 2327, 2381, 2372]
ch1 : [3194, 3196, 3198, 3200, 3195, 3194, 3196, 3192, 3198, 3193]
ch2 : [1548, 1549, 1546, 1553, 1551, 1538, 1553, 1551, 1550, 1552]
ch3 : [2800, 2797, 2795, 2796, 2796, 2794, 2795, 2799, 2800, 2797]
ch0 : [2408, 2360, 2340, 2475, 2386, 2171, 2356, 2381, 2465, 2401]
ch1 : [3193, 3194, 3192, 3195, 3194, 3199, 3192, 3196, 3196, 3196]
ch2 : [1550, 1550, 1551, 1537, 1532, 1548, 1554, 1552, 1547, 1550]
ch3 : [2796, 2798, 2794, 2788, 2793, 2792, 2800, 2798, 2797, 2794]
ch0 : [2368, 2392, 2462, 2220, 2342, 2389, 2377, 2412, 2354, 2351]
ch1 : [3194, 3187, 3197, 3201, 3197, 3191, 3193, 3187, 3195, 3191]
ch2 : [1546, 1548, 1535, 1538, 1549, 1551, 1549, 1548, 1533, 1552]
ch3 : [2796, 2793, 2790, 2797, 2799, 2796, 2795, 2800, 2794, 2795]
ch0 : [2469, 2427, 2184, 2347, 2386, 2464, 2401, 2352, 2354, 2463]
ch1 : [3193, 3183, 3195, 3189, 3193, 3191, 3192, 3196, 3196, 3190]
ch2 : [1529, 1535, 1545, 1555, 1551, 1549, 1547, 1552, 1552, 1537]
ch3 : [2791, 2792, 2801, 2799, 2802, 2795, 2793, 2795, 2793, 2791]
ch0 : [2341, 2384, 2466, 2407, 2351, 2361, 2467, 2323, 2317, 2383]
ch1 : [3192, 3192, 3196, 3192, 3181, 3191, 3192, 3190, 3192, 3194]
ch2 : [1553, 1552, 1552, 1547, 1544, 1552, 1539, 1542, 1551, 1553]
ch3 : [2797, 2800, 2800, 2794, 2795, 2795, 2793, 2796, 2796, 2808]
ch0 : [2370, 2404, 2360, 2365, 2486, 2443, 2143, 2344, 2396, 2463]
ch1 : [3195, 3192, 3197, 3193, 3196, 3192, 3198, 3193, 3191, 3193]
ch2 : [1554, 1552, 1550, 1551, 1545, 1535, 1547, 1556, 1549, 1551]
ch3 : [2793, 2801, 2787, 2791, 2805, 2791, 2800, 2804, 2802, 2798]
ch0 : [2404, 2373, 2358, 2445, 2361, 2312, 2381, 2365, 2408, 2377]
ch1 : [3194, 3197, 3193, 3195, 3194, 3196, 3195, 3192, 3191, 3192]
ch2 : [1550, 1549, 1554, 1543, 1538, 1557, 1554, 1551, 1552, 1548]
ch3 : [2789, 2797, 2798, 2796, 2796, 2799, 2799, 2798, 2799, 2801]
ch0 : [2385, 2475, 2429, 2128, 2357, 2372, 2444, 2414, 2365, 2352]
ch1 : [3190, 3193, 3193, 3193, 3196, 3193, 3193, 3192, 3194, 3194]
ch2 : [1549, 1546, 1533, 1548, 1554, 1554, 1552, 1548, 1552, 1543]
ch3 : [2799, 2801, 2794, 2801, 2802, 2797, 2798, 2797, 2797, 2796]
ch0 : [2484, 2373, 2313, 2405, 2376, 2401, 2375, 2371, 2471, 2372]
ch1 : [3188, 3194, 3205, 3193, 3193, 3193, 3193, 3192, 3192, 3191]
ch2 : [1539, 1531, 1555, 1565, 1555, 1551, 1551, 1553, 1547, 1534]
ch3 : [2795, 2798, 2798, 2798, 2801, 2797, 2796, 2799, 2795, 2795]
ch0 : [2127, 2337, 2390, 2403, 2413, 2356, 2356, 2472, 2343, 2310]
ch1 : [3203, 3192, 3192, 3194, 3188, 3192, 3195, 3198, 3189, 3195]
ch2 : [1544, 1551, 1556, 1549, 1552, 1548, 1541, 1541, 1535, 1550]
ch3 : [2798, 2787, 2800, 2798, 2802, 2796, 2798, 2801, 2795, 2800]
ch0 : [2373, 2389, 2410, 2392, 2380, 2471, 2377, 2131, 2329, 2378]
ch1 : [3191, 3193, 3194, 3195, 3194, 3191, 3191, 3195, 3196, 3191]
ch2 : [1550, 1556, 1555, 1550, 1553, 1552, 1531, 1552, 1555, 1541]
ch3 : [2800, 2799, 2798, 2797, 2797, 2798, 2796, 2796, 2811, 2800]
ch0 : [2404, 2411, 2352, 2366, 2474, 2382, 2298, 2386, 2375, 2415]
ch1 : [3189, 3196, 3192, 3195, 3196, 3187, 3195, 3188, 3195, 3207]
ch2 : [1551, 1553, 1552, 1553, 1539, 1536, 1552, 1558, 1554, 1552]
ch3 : [2803, 2796, 2796, 2799, 2784, 2806, 2792, 2788, 2798, 2799]
ch0 : [2382, 2364, 2476, 2453, 2096, 2322, 2392, 2395, 2408, 2360]
ch1 : [3192, 3194, 3190, 3196, 3195, 3193, 3195, 3191, 3187, 3196]
ch2 : [1548, 1546, 1553, 1535, 1544, 1560, 1554, 1554, 1549, 1553]
ch3 : [2800, 2798, 2801, 2795, 2795, 2802, 2798, 2802, 2802, 2796]
ch0 : [2426, 2095, 2328, 2375, 2391, 2415, 2357, 2363, 2473, 2420]
ch1 : [3194, 3194, 3198, 3191, 3187, 3194, 3192, 3192, 3193, 3194]
ch2 : [1533, 1541, 1555, 1555, 1554, 1549, 1553, 1550, 1541, 1538]
ch3 : [2798, 2798, 2802, 2804, 2799, 2797, 2798, 2800, 2797, 2798]
ch0 : [2295, 2381, 2374, 2419, 2401, 2345, 2468, 2405, 2089, 2311]
ch1 : [3184, 3193, 3194, 3192, 3193, 3193, 3193, 3192, 3196, 3195]
ch2 : [1549, 1554, 1548, 1551, 1549, 1549, 1544, 1534, 1541, 1553]
ch3 : [2798, 2801, 2796, 2800, 2796, 2800, 2809, 2793, 2809, 2798]
ch0 : [2381, 2407, 2426, 2364, 2357, 2475, 2428, 2269, 2368, 2387]
ch1 : [3195, 3192, 3192, 3189, 3196, 3194, 3191, 3192, 3194, 3193]
ch2 : [1557, 1552, 1547, 1549, 1550, 1542, 1539, 1552, 1554, 1536]
ch3 : [2804, 2797, 2795, 2798, 2809, 2800, 2802, 2813, 2799, 2802]
ch0 : [2408, 2393, 2342, 2427, 2448, 2077, 2314, 2383, 2396, 2403]
ch1 : [3194, 3202, 3197, 3193, 3182, 3196, 3195, 3196, 3197, 3192]
ch2 : [1550, 1551, 1550, 1551, 1531, 1545, 1550, 1555, 1554, 1555]
ch3 : [2795, 2790, 2798, 2799, 2796, 2799, 2799, 2804, 2801, 2798]
ch0 : [2351, 2362, 2467, 2446, 2276, 2377, 2388, 2410, 2407, 2355]
ch1 : [3197, 3187, 3196, 3192, 3190, 3196, 3190, 3196, 3191, 3197]
ch2 : [1549, 1550, 1543, 1539, 1548, 1572, 1548, 1553, 1553, 1549]
ch3 : [2791, 2800, 2797, 2799, 2801, 2800, 2803, 2804, 2801, 2799]
ch0 : [2348, 2455, 2065, 2304, 2370, 2395, 2430, 2362, 2374, 2472]
ch1 : [3194, 3194, 3197, 3197, 3192, 3187, 3202, 3190, 3196, 3187]
ch2 : [1551, 1531, 1540, 1555, 1558, 1552, 1555, 1548, 1549, 1538]
ch3 : [2799, 2798, 2801, 2799, 2804, 2801, 2799, 2804, 2801, 2801]
ch0 : [2410, 2266, 2372, 2398, 2411, 2400, 2331, 2331, 2446, 2078]
ch1 : [3188, 3194, 3193, 3194, 3191, 3190, 3197, 3197, 3195, 3189]
ch2 : [1549, 1550, 1554, 1555, 1550, 1546, 1551, 1551, 1540, 1540]
ch3 : [2799, 2800, 2808, 2790, 2799, 2800, 2799, 2799, 2799, 2797]
ch0 : [2292, 2366, 2398, 2422, 2355, 2355, 2471, 2394, 2259, 2354]
ch1 : [3194, 3198, 3200, 3190, 3196, 3190, 3193, 3192, 3201, 3194]
ch2 : [1555, 1559, 1542, 1546, 1553, 1550, 1542, 1540, 1550, 1556]
ch3 : [2801, 2805, 2802, 2798, 2788, 2804, 2800, 2802, 2798, 2806]
ch0 : [2383, 2406, 2383, 2328, 2309, 2458, 2089, 2292, 2370, 2400]
ch1 : [3195, 3193, 3189, 3198, 3192, 3198, 3194, 3191, 3192, 3197]
ch2 : [1554, 1555, 1546, 1549, 1544, 1540, 1538, 1556, 1559, 1556]
ch3 : [2810, 2804, 2800, 2795, 2808, 2798, 2801, 2801, 2806, 2799]
ch0 : [2426, 2372, 2367, 2469, 2413, 2250, 2353, 2389, 2407, 2385]
ch1 : [3189, 3194, 3191, 3194, 3191, 3193, 3196, 3192, 3196, 3197]
ch2 : [1565, 1552, 1551, 1546, 1542, 1551, 1560, 1563, 1555, 1568]
ch3 : [2798, 2800, 2801, 2800, 2799, 2799, 2803, 2805, 2803, 2799]
ch0 : [2347, 2326, 2427, 2161, 2277, 2373, 2389, 2439, 2370, 2358]
ch1 : [3194, 3191, 3194, 3196, 3195, 3187, 3193, 3190, 3195, 3196]
ch2 : [1552, 1567, 1538, 1541, 1556, 1560, 1556, 1569, 1551, 1551]
ch3 : [2801, 2796, 2799, 2797, 2802, 2808, 2801, 2802, 2796, 2801]
ch0 : [2469, 2422, 2233, 2359, 2383, 2417, 2401, 2350, 2314, 2424]
ch1 : [3195, 3190, 3196, 3195, 3187, 3193, 3192, 3195, 3193, 3182]
ch2 : [1546, 1534, 1552, 1550, 1557, 1556, 1551, 1552, 1559, 1544]
ch3 : [2801, 2802, 2800, 2804, 2796, 2801, 2800, 2799, 2802, 2797]
ch0 : [2219, 2270, 2364, 2391, 2428, 2352, 2372, 2469, 2448, 2217]
ch1 : [3197, 3197, 3195, 3193, 3191, 3192, 3193, 3191, 3196, 3193]
ch2 : [1547, 1563, 1564, 1552, 1544, 1544, 1549, 1549, 1540, 1553]
ch3 : [2797, 2805, 2806, 2803, 2804, 2803, 2799, 2801, 2799, 2803]
ch0 : [2362, 2371, 2401, 2408, 2353, 2314, 2465, 2243, 2257, 2350]
ch1 : [3197, 3199, 3195, 3189, 3192, 3193, 3190, 3195, 3194, 3192]
ch2 : [1553, 1551, 1550, 1547, 1549, 1549, 1531, 1526, 1548, 1553]
ch3 : [2806, 2801, 2801, 2800, 2799, 2804, 2799, 2802, 2802, 2800]
ch0 : [2390, 2456, 2358, 2355, 2467, 2409, 2212, 2340, 2382, 2399]
ch1 : [3188, 3193, 3190, 3187, 3192, 3193, 3206, 3191, 3202, 3194]
ch2 : [1544, 1539, 1539, 1537, 1523, 1521, 1530, 1546, 1541, 1540]
ch3 : [2801, 2793, 2800, 2789, 2797, 2801, 2811, 2804, 2804, 2807]
ch0 : [2390, 2352, 2318, 2471, 2307, 2263, 2364, 2391, 2431, 2368]
ch1 : [3192, 3188, 3192, 3197, 3194, 3192, 3196, 3193, 3194, 3187]
ch2 : [1534, 1543, 1535, 1524, 1519, 1540, 1548, 1537, 1535, 1541]
ch3 : [2797, 2803, 2800, 2795, 2798, 2800, 2803, 2799, 2801, 2804]
ch0 : [2382, 2472, 2464, 2199, 2360, 2377, 2393, 2398, 2349, 2310]
ch1 : [3191, 3197, 3196, 3195, 3188, 3196, 3192, 3194, 3197, 3189]
ch2 : [1537, 1537, 1527, 1538, 1554, 1548, 1540, 1530, 1535, 1535]
ch3 : [2799, 2799, 2809, 2802, 2803, 2802, 2804, 2801, 2798, 2801]
ch0 : [2450, 2312, 2256, 2363, 2383, 2438, 2365, 2387, 2466, 2464]
ch1 : [3192, 3196, 3193, 3190, 3194, 3195, 3199, 3192, 3192, 3196]
