device found = /dev/cu.usbmodem14433
ch0 : [2434, 2374, 2385, 2467, 2376, 2193, 2351, 2357, 2396, 2383]
ch1 : [3196, 3192, 3190, 3192, 3195, 3204, 3193, 3192, 3203, 3192]
ch2 : [1683, 1684, 1688, 1679, 1672, 1682, 1689, 1685, 1686, 1684]
ch3 : [2902, 2896, 2898, 2900, 2902, 2900, 2901, 2900, 2906, 2895]
ch0 : [2337, 2313, 2448, 2265, 2253, 2361, 2390, 2448, 2363, 2365]
ch1 : [3192, 3193, 3192, 3195, 3193, 3196, 3192, 3193, 3192, 3191]
ch2 : [1683, 1685, 1668, 1668, 1687, 1689, 1685, 1685, 1681, 1684]
ch3 : [2895, 2901, 2897, 2900, 2901, 2904, 2901, 2897, 2897, 2900]
ch0 : [2472, 2424, 2208, 2363, 2367, 2401, 2349, 2357, 2418, 2478]
ch1 : [3197, 3192, 3206, 3192, 3193, 3192, 3193, 3200, 3192, 3189]
ch2 : [1677, 1671, 1680, 1685, 1687, 1683, 1684, 1685, 1696, 1673]
ch3 : [2900, 2901, 2902, 2902, 2901, 2899, 2905, 2890, 2903, 2899]
ch0 : [2284, 2239, 2372, 2391, 2454, 2392, 2378, 2473, 2427, 2200]
ch1 : [3192, 3194, 3191, 3196, 3189, 3196, 3195, 3186, 3204, 3194]
ch2 : [1667, 1685, 1688, 1688, 1679, 1686, 1690, 1677, 1670, 1688]
ch3 : [2896, 2901, 2916, 2902, 2904, 2898, 2900, 2905, 2900, 2905]
ch0 : [2367, 2387, 2419, 2409, 2365, 2330, 2478, 2339, 2264, 2378]
ch1 : [3203, 3190, 3191, 3196, 3190, 3191, 3187, 3194, 3193, 3194]
ch2 : [1692, 1691, 1681, 1683, 1682, 1681, 1666, 1667, 1686, 1695]
ch3 : [2904, 2903, 2902, 2903, 2902, 2899, 2902, 2900, 2900, 2903]
ch0 : [2372, 2457, 2451, 2391, 2483, 2415, 2238, 2307, 2446, 2367]
ch1 : [3192, 3196, 3191, 3192, 3192, 3192, 3194, 3196, 3188, 3196]
ch2 : [1686, 1681, 1684, 1685, 1678, 1671, 1677, 1688, 1687, 1688]
ch3 : [2901, 2888, 2898, 2911, 2902, 2899, 2904, 2901, 2903, 2902]
ch0 : [2405, 2384, 2319, 2485, 2362, 2220, 2339, 2382, 2449, 2370]
ch1 : [3189, 3192, 3195, 3200, 3195, 3197, 3192, 3192, 3194, 3191]
ch2 : [1683, 1696, 1685, 1671, 1663, 1686, 1692, 1687, 1680, 1686]
ch3 : [2913, 2900, 2902, 2899, 2893, 2901, 2903, 2901, 2898, 2898]
ch0 : [2353, 2472, 2449, 2147, 2319, 2378, 2377, 2389, 2352, 2314]
ch1 : [3194, 3192, 3193, 3195, 3195, 3196, 3193, 3193, 3192, 3193]
ch2 : [1681, 1682, 1664, 1678, 1686, 1687, 1685, 1684, 1683, 1679]
ch3 : [2896, 2901, 2898, 2903, 2904, 2902, 2899, 2899, 2900, 2905]
ch0 : [2471, 2381, 2216, 2350, 2376, 2444, 2366, 2337, 2466, 2439]
ch1 : [3193, 3190, 3189, 3197, 3202, 3191, 3193, 3195, 3192, 3190]
ch2 : [1671, 1664, 1688, 1688, 1683, 1689, 1684, 1687, 1679, 1671]
ch3 : [2899, 2897, 2904, 2902, 2903, 2905, 2898, 2900, 2893, 2900]
ch0 : [2150, 2317, 2365, 2370, 2402, 2348, 2325, 2462, 2380, 2204]
ch1 : [3192, 3198, 3197, 3195, 3197, 3195, 3195, 3193, 3187, 3196]
ch2 : [1679, 1689, 1689, 1685, 1686, 1687, 1688, 1671, 1668, 1686]
ch3 : [2902, 2904, 2903, 2902, 2900, 2901, 2903, 2902, 2900, 2912]
ch0 : [2366, 2384, 2361, 2334, 2464, 2382, 2201, 2352, 2385, 2454]
ch1 : [3196, 3193, 3193, 3193, 3193, 3196, 3195, 3195, 3199, 3196]
ch2 : [1682, 1686, 1684, 1689, 1675, 1670, 1688, 1698, 1685, 1690]
ch3 : [2901, 2888, 2899, 2901, 2895, 2901, 2904, 2908, 2898, 2898]
ch0 : [2370, 2334, 2446, 2448, 2143, 2315, 2378, 2358, 2402, 2348]
ch1 : [3196, 3195, 3194, 3190, 3197, 3201, 3195, 3194, 3196, 3193]
ch2 : [1669, 1684, 1687, 1670, 1674, 1690, 1690, 1687, 1690, 1685]
ch3 : [2901, 2898, 2900, 2901, 2911, 2903, 2900, 2914, 2902, 2901]
ch0 : [2467, 2180, 2318, 2356, 2367, 2400, 2350, 2338, 2467, 2404]
ch1 : [3191, 3198, 3188, 3195, 3196, 3205, 3194, 3195, 3193, 3192]
ch2 : [1665, 1680, 1688, 1687, 1682, 1690, 1684, 1685, 1675, 1671]
ch3 : [2904, 2901, 2904, 2903, 2901, 2903, 2901, 2903, 2900, 2898]
ch0 : [2178, 2356, 2369, 2456, 2371, 2355, 2373, 2442, 2258, 2326]
ch1 : [3197, 3190, 3184, 3196, 3192, 3189, 3198, 3195, 3195, 3197]
ch2 : [1683, 1688, 1687, 1678, 1686, 1684, 1684, 1673, 1672, 1684]
ch3 : [2902, 2907, 2901, 2902, 2899, 2899, 2900, 2901, 2905, 2904]
ch0 : [2367, 2376, 2394, 2360, 2363, 2467, 2361, 2158, 2344, 2396]
ch1 : [3191, 3187, 3196, 3192, 3195, 3192, 3194, 3194, 3191, 3181]
ch2 : [1690, 1686, 1691, 1693, 1691, 1680, 1666, 1689, 1694, 1688]
ch3 : [2901, 2904, 2900, 2898, 2902, 2900, 2900, 2902, 2905, 2905]
ch0 : [2460, 2393, 2360, 2362, 2430, 2267, 2315, 2380, 2376, 2407]
ch1 : [3192, 3194, 3195, 3198, 3191, 3197, 3197, 3194, 3193, 3195]
ch2 : [1684, 1680, 1687, 1682, 1666, 1674, 1689, 1686, 1685, 1685]
ch3 : [2905, 2897, 2902, 2903, 2898, 2901, 2912, 2903, 2907, 2901]
ch0 : [2376, 2381, 2473, 2444, 2165, 2357, 2380, 2465, 2415, 2377]
ch1 : [3193, 3191, 3195, 3197, 3194, 3191, 3192, 3191, 3186, 3190]
ch2 : [1679, 1684, 1678, 1664, 1685, 1693, 1694, 1689, 1683, 1683]
ch3 : [2903, 2905, 2899, 2901, 2903, 2903, 2903, 2903, 2906, 2899]
ch0 : [2371, 2468, 2305, 2310, 2396, 2402, 2416, 2380, 2397, 2475]
ch1 : [3192, 3189, 3191, 3189, 3193, 3191, 3192, 3187, 3187, 3195]
ch2 : [1679, 1670, 1672, 1688, 1689, 1689, 1689, 1686, 1683, 1678]
ch3 : [2903, 2898, 2909, 2903, 2899, 2905, 2902, 2897, 2907, 2902]
ch0 : [2480, 2149, 2342, 2389, 2464, 2414, 2365, 2358, 2450, 2382]
ch1 : [3192, 3191, 3194, 3191, 3191, 3196, 3195, 3197, 3187, 3196]
ch2 : [1666, 1686, 1687, 1693, 1687, 1686, 1685, 1686, 1672, 1668]
ch3 : [2901, 2903, 2904, 2903, 2905, 2900, 2899, 2900, 2905, 2904]
ch0 : [2299, 2389, 2358, 2403, 2379, 2373, 2471, 2421, 2112, 2330]
ch1 : [3193, 3191, 3194, 3196, 3194, 3193, 3205, 3193, 3195, 3180]
ch2 : [1693, 1690, 1686, 1688, 1687, 1687, 1684, 1668, 1678, 1695]
ch3 : [2908, 2901, 2901, 2898, 2899, 2904, 2902, 2899, 2902, 2903]
ch0 : [2402, 2377, 2382, 2479, 2400, 2104, 2335, 2366, 2386, 2423]
ch1 : [3193, 3194, 3197, 3194, 3201, 3194, 3197, 3192, 3187, 3191]
ch2 : [1688, 1700, 1683, 1681, 1669, 1685, 1690, 1692, 1686, 1689]
ch3 : [2901, 2901, 2901, 2903, 2898, 2903, 2903, 2909, 2913, 2900]
ch0 : [2362, 2345, 2472, 2419, 2282, 2360, 2386, 2403, 2382, 2365]
ch1 : [3192, 3192, 3191, 3192, 3194, 3196, 3191, 3192, 3190, 3192]
ch2 : [1686, 1685, 1677, 1672, 1690, 1692, 1691, 1688, 1688, 1685]
ch3 : [2899, 2900, 2902, 2904, 2906, 2904, 2904, 2901, 2902, 2900]
ch0 : [2469, 2408, 2103, 2342, 2371, 2382, 2410, 2357, 2326, 2456]
ch1 : [3192, 3192, 3195, 3194, 3195, 3191, 3192, 3193, 3197, 3187]
ch2 : [1685, 1669, 1681, 1686, 1690, 1692, 1689, 1688, 1683, 1674]
ch3 : [2904, 2903, 2904, 2904, 2908, 2905, 2900, 2899, 2908, 2909]
ch0 : [2417, 2292, 2368, 2369, 2395, 2387, 2363, 2465, 2397, 2076]
ch1 : [3180, 3194, 3193, 3193, 3192, 3187, 3193, 3196, 3196, 3195]
ch2 : [1666, 1688, 1693, 1688, 1683, 1686, 1685, 1684, 1663, 1673]
ch3 : [2905, 2914, 2905, 2904, 2902, 2901, 2899, 2902, 2899, 2902]
ch0 : [2311, 2372, 2392, 2400, 2356, 2344, 2468, 2421, 2256, 2359]
ch1 : [3196, 3193, 3193, 3188, 3196, 3194, 3190, 3190, 3192, 3196]
ch2 : [1684, 1694, 1684, 1683, 1685, 1684, 1667, 1673, 1675, 1687]
ch3 : [2905, 2905, 2905, 2901, 2902, 2902, 2902, 2891, 2906, 2909]
ch0 : [2372, 2395, 2391, 2338, 2459, 2461, 2043, 2303, 2367, 2378]
ch1 : [3192, 3194, 3188, 3195, 3192, 3195, 3196, 3195, 3192, 3194]
ch2 : [1687, 1682, 1685, 1688, 1684, 1669, 1677, 1689, 1692, 1686]
ch3 : [2908, 2904, 2900, 2903, 2903, 2904, 2903, 2911, 2908, 2904]
ch0 : [2401, 2349, 2321, 2466, 2416, 2243, 2367, 2371, 2400, 2380]
ch1 : [3196, 3196, 3194, 3193, 3191, 3196, 3194, 3196, 3192, 3196]
ch2 : [1678, 1685, 1687, 1660, 1669, 1686, 1685, 1686, 1686, 1683]
ch3 : [2901, 2903, 2902, 2900, 2909, 2907, 2902, 2905, 2903, 2897]
ch0 : [2334, 2405, 2416, 2042, 2294, 2373, 2379, 2423, 2385, 2346]
ch1 : [3191, 3195, 3200, 3197, 3196, 3193, 3196, 3192, 3200, 3197]
ch2 : [1683, 1687, 1671, 1674, 1687, 1688, 1685, 1687, 1683, 1684]
ch3 : [2904, 2906, 2892, 2902, 2908, 2906, 2908, 2903, 2902, 2904]
ch0 : [2459, 2357, 2255, 2365, 2360, 2409, 2374, 2331, 2347, 2421]
ch1 : [3196, 3193, 3195, 3185, 3191, 3193, 3191, 3195, 3194, 3194]
ch2 : [1675, 1690, 1684, 1687, 1689, 1683, 1685, 1688, 1683, 1670]
ch3 : [2899, 2905, 2906, 2908, 2905, 2904, 2905, 2904, 2899, 2904]
ch0 : [2075, 2294, 2365, 2380, 2425, 2360, 2353, 2467, 2421, 2226]
ch1 : [3196, 3192, 3192, 3191, 3196, 3197, 3193, 3194, 3194, 3193]
ch2 : [1677, 1702, 1702, 1687, 1685, 1685, 1688, 1674, 1663, 1690]
ch3 : [2903, 2907, 2905, 2907, 2900, 2901, 2903, 2898, 2905, 2908]
ch0 : [2366, 2382, 2392, 2385, 2349, 2316, 2396, 2061, 2289, 2378]
ch1 : [3193, 3192, 3184, 3189, 3194, 3197, 3195, 3198, 3196, 3193]
ch2 : [1689, 1688, 1689, 1687, 1686, 1686, 1672, 1673, 1690, 1701]
ch3 : [2900, 2893, 2906, 2902, 2905, 2910, 2897, 2902, 2907, 2908]
ch0 : [2377, 2440, 2336, 2364, 2472, 2404, 2238, 2375, 2376, 2414]
ch1 : [3195, 3192, 3193, 3193, 3185, 3204, 3195, 3193, 3193, 3196]
ch2 : [1688, 1687, 1684, 1691, 1681, 1671, 1685, 1692, 1686, 1687]
ch3 : [2904, 2902, 2903, 2900, 2903, 2908, 2909, 2915, 2899, 2904]
ch0 : [2394, 2345, 2325, 2391, 2089, 2284, 2362, 2381, 2423, 2352]
ch1 : [3193, 3194, 3193, 3193, 3195, 3191, 3190, 3196, 3191, 3195]
ch2 : [1685, 1681, 1683, 1670, 1673, 1690, 1690, 1692, 1684, 1696]
ch3 : [2903, 2904, 2905, 2903, 2902, 2903, 2910, 2907, 2903, 2901]
ch0 : [2378, 2473, 2429, 2237, 2366, 2369, 2408, 2395, 2331, 2321]
ch1 : [3192, 3190, 3193, 3195, 3192, 3200, 3187, 3194, 3190, 3197]
ch2 : [1679, 1671, 1668, 1679, 1695, 1688, 1686, 1689, 1682, 1674]
ch3 : [2896, 2906, 2908, 2905, 2914, 2903, 2904, 2902, 2906, 2902]
ch0 : [2463, 2146, 2282, 2364, 2399, 2419, 2360, 2363, 2469, 2354]
ch1 : [3191, 3196, 3193, 3192, 3194, 3192, 3206, 3194, 3193, 3204]
ch2 : [1676, 1671, 1693, 1690, 1691, 1690, 1687, 1687, 1679, 1671]
ch3 : [2904, 2903, 2903, 2912, 2915, 2901, 2901, 2900, 2899, 2904]
ch0 : [2240, 2369, 2382, 2412, 2388, 2346, 2319, 2463, 2207, 2278]
ch1 : [3193, 3194, 3193, 3193, 3191, 3196, 3195, 3193, 3196, 3191]
ch2 : [1683, 1692, 1689, 1688, 1689, 1681, 1686, 1672, 1673, 1690]
ch3 : [2908, 2899, 2902, 2902, 2902, 2902, 2905, 2902, 2899, 2905]
ch0 : [2372, 2388, 2415, 2358, 2375, 2469, 2401, 2217, 2350, 2385]
ch1 : [3192, 3193, 3187, 3194, 3196, 3194, 3194, 3195, 3193, 3193]
ch2 : [1692, 1686, 1687, 1684, 1689, 1682, 1671, 1682, 1688, 1701]
ch3 : [2905, 2904, 2900, 2898, 2895, 2900, 2905, 2906, 2904, 2904]
ch0 : [2397, 2385, 2348, 2315, 2470, 2305, 2263, 2359, 2384, 2441]
ch1 : [3191, 3193, 3196, 3195, 3197, 3191, 3196, 3193, 3196, 3194]
ch2 : [1688, 1686, 1688, 1686, 1671, 1672, 1693, 1678, 1687, 1684]
ch3 : [2900, 2901, 2906, 2905, 2900, 2901, 2906, 2908, 2904, 2899]
ch0 : [2363, 2377, 2468, 2463, 2185, 2346, 2397, 2396, 2394, 2332]
ch1 : [3193, 3193, 3190, 3195, 3195, 3192, 3193, 3193, 3196, 3197]
ch2 : [1684, 1684, 1677, 1674, 1681, 1684, 1686, 1682, 1686, 1684]
ch3 : [2901, 2900, 2903, 2906, 2907, 2907, 2903, 2905, 2902, 2904]
ch0 : [2310, 2444, 2274, 2264, 2373, 2398, 2443, 2353, 2365, 2459]
ch1 : [3195, 3190, 3197, 3191, 3200, 3195, 3193, 3190, 3193, 3192]
ch2 : [1686, 1674, 1670, 1689, 1673, 1681, 1682, 1686, 1674, 1679]
ch3 : [2907, 2902, 2908, 2906, 2906, 2907, 2904, 2902, 2899, 2900]
ch0 : [2427, 2218, 2348, 2384, 2395, 2415, 2359, 2304, 2454, 2312]
ch1 : [3191, 3191, 3193, 3188, 3194, 3192, 3194, 3195, 3195, 3194]
ch2 : [1672, 1683, 1685, 1689, 1689, 1688, 1690, 1687, 1674, 1672]
ch3 : [2904, 2901, 2905, 2904, 2902, 2904, 2902, 2905, 2899, 2902]
ch0 : [2267, 2377, 2392, 2455, 2383, 2377, 2473, 2455, 2169, 2341]
ch1 : [3189, 3183, 3189, 3193, 3192, 3189, 3189, 3192, 3196, 3189]
ch2 : [1691, 1693, 1690, 1692, 1692, 1687, 1682, 1653, 1683, 1692]
ch3 : [2905, 2900, 2904, 2896, 2899, 2895, 2903, 2902, 2916, 2904]
ch0 : [2402, 2386, 2402, 2356, 2311, 2452, 2360, 2253, 2375, 2388]
ch1 : [3191, 3196, 3191, 3194, 3196, 3193, 3193, 3190, 3191, 3191]
ch2 : [1691, 1684, 1693, 1687, 1689, 1675, 1669, 1690, 1691, 1691]
ch3 : [2903, 2902, 2901, 2901, 2903, 2901, 2888, 2911, 2905, 2900]
ch0 : [2436, 2374, 2356, 2471, 2433, 2170, 2343, 2387, 2372, 2413]
ch1 : [3192, 3193, 3191, 3190, 3195, 3184, 3193, 3193, 3196, 3191]
ch2 : [1674, 1686, 1684, 1688, 1685, 1678, 1692, 1685, 1689, 1687]
ch3 : [2901, 2900, 2899, 2908, 2901, 2903, 2908, 2907, 2904, 2903]
ch0 : [2344, 2311, 2473, 2385, 2228, 2343, 2381, 2452, 2359, 2364]
ch1 : [3193, 3195, 3191, 3192, 3195, 3189, 3192, 3193, 3194, 3193]
ch2 : [1684, 1688, 1677, 1670, 1688, 1695, 1691, 1686, 1685, 1683]
ch3 : [2903, 2904, 2903, 2902, 2906, 2905, 2905, 2905, 2901, 2902]
ch0 : [2343, 2228, 2356, 2372, 2453, 2382, 2355, 2469, 2425, 2151]
ch1 : [3196, 3197, 3188, 3191, 3193, 3193, 3192, 3195, 3188, 3189]
ch2 : [1673, 1686, 1690, 1689, 1686, 1681, 1686, 1683, 1671, 1678]
ch3 : [2892, 2903, 2904, 2901, 2899, 2902, 2899, 2901, 2902, 2903]
ch0 : [2327, 2380, 2363, 2401, 2351, 2329, 2452, 2359, 2206, 2356]
ch1 : [3196, 3192, 3194, 3188, 3194, 3196, 3193, 3193, 3198, 3193]
ch2 : [1693, 1692, 1689, 1684, 1684, 1681, 1670, 1666, 1686, 1690]
ch3 : [2905, 2904, 2901, 2900, 2895, 2916, 2897, 2901, 2907, 2905]
ch0 : [2372, 2460, 2379, 2338, 2460, 2432, 2135, 2328, 2376, 2372]
ch1 : [3190, 3184, 3194, 3190, 3193, 3191, 3197, 3194, 3194, 3193]
ch2 : [1687, 1685, 1686, 1683, 1685, 1669, 1675, 1705, 1686, 1687]
ch3 : [2901, 2903, 2900, 2897, 2905, 2905, 2906, 2903, 2903, 2905]
ch0 : [2373, 2354, 2326, 2464, 2454, 2201, 2357, 2370, 2466, 2369]
ch1 : [3191, 3192, 3191, 3191, 3192, 3189, 3188, 3189, 3193, 3198]
ch2 : [1684, 1686, 1683, 1669, 1666, 1680, 1692, 1680, 1683, 1682]
ch3 : [2902, 2902, 2901, 2903, 2899, 2903, 2905, 2906, 2902, 2905]
ch0 : [2348, 2430, 2466, 2142, 2318, 2371, 2354, 2378, 2362, 2340]
ch1 : [3192, 3192, 3195, 3192, 3197, 3192, 3194, 3192, 3194, 3191]
ch2 : [1682, 1684, 1668, 1678, 1683, 1689, 1680, 1688, 1678, 1674]
ch3 : [2901, 2889, 2901, 2908, 2904, 2894, 2904, 2897, 2900, 2901]
ch0 : [2434, 2373, 2195, 2341, 2374, 2460, 2360, 2340, 2384, 2425]
ch1 : [3193, 3193, 3195, 3192, 3191, 3196, 3195, 3196, 3203, 3188]
ch2 : [1673, 1667, 1680, 1689, 1688, 1685, 1680, 1681, 1681, 1666]
ch3 : [2902, 2899, 2899, 2903, 2905, 2903, 2902, 2899, 2904, 2899]
ch0 : [2181, 2322, 2367, 2366, 2390, 2353, 2344, 2461, 2392, 2175]
ch1 : [3192, 3193, 3192, 3191, 3203, 3191, 3194, 3196, 3197, 3197]
ch2 : [1673, 1690, 1689, 1688, 1675, 1685, 1682, 1674, 1674, 1680]
ch3 : [2903, 2904, 2905, 2903, 2902, 2902, 2905, 2905, 2901, 2908]
ch0 : [2341, 2376, 2460, 2376, 2343, 2342, 2458, 2247, 2307, 2364]
ch1 : [3192, 3196, 3193, 3199, 3186, 3191, 3191, 3192, 3195, 3194]
ch2 : [1685, 1690, 1683, 1681, 1680, 1685, 1662, 1666, 1685, 1685]
ch3 : [2904, 2908, 2903, 2894, 2900, 2901, 2900, 2904, 2904, 2906]
ch0 : [2355, 2391, 2348, 2335, 2467, 2407, 2160, 2334, 2363, 2455]
ch1 : [3193, 3193, 3194, 3197, 3195, 3196, 3196, 3192, 3193, 3197]
ch2 : [1685, 1682, 1683, 1684, 1678, 1663, 1683, 1690, 1686, 1685]
ch3 : [2897, 2895, 2902, 2902, 2900, 2888, 2905, 2903, 2899, 2904]
ch0 : [2383, 2350, 2340, 2433, 2308, 2306, 2366, 2366, 2391, 2354]
ch1 : [3191, 3192, 3194, 3193, 3194, 3193, 3194, 3197, 3192, 3191]
ch2 : [1680, 1686, 1683, 1670, 1673, 1689, 1687, 1684, 1685, 1682]
ch3 : [2889, 2901, 2903, 2902, 2905, 2907, 2912, 2904, 2900, 2901]
ch0 : [2336, 2461, 2399, 2163, 2331, 2373, 2455, 2392, 2332, 2336]
ch1 : [3194, 3194, 3194, 3194, 3195, 3193, 3191, 3192, 3195, 3177]
ch2 : [1688, 1676, 1666, 1680, 1687, 1686, 1682, 1694, 1682, 1687]
ch3 : [2906, 2902, 2902, 2905, 2905, 2902, 2902, 2903, 2900, 2903]
ch0 : [2463, 2292, 2313, 2370, 2370, 2395, 2361, 2359, 2462, 2399]
ch1 : [3192, 3197, 3194, 3198, 3196, 3191, 3187, 3195, 3190, 3195]
ch2 : [1665, 1671, 1688, 1685, 1687, 1689, 1682, 1686, 1685, 1666]
ch3 : [2906, 2906, 2903, 2908, 2902, 2901, 2904, 2902, 2903, 2900]
ch0 : [2132, 2340, 2393, 2448, 2402, 2362, 2325, 2465, 2342, 2304]
ch1 : [3189, 3192, 3196, 3195, 3198, 3196, 3190, 3196, 3187, 3199]
ch2 : [1676, 1690, 1689, 1674, 1683, 1682, 1682, 1669, 1680, 1686]
ch3 : [2900, 2902, 2905, 2903, 2900, 2901, 2904, 2905, 2909, 2904]
ch0 : [2360, 2375, 2410, 2359, 2374, 2461, 2400, 2134, 2330, 2374]
ch1 : [3193, 3192, 3191, 3194, 3196, 3191, 3193, 3196, 3191, 3195]
ch2 : [1688, 1685, 1683, 1681, 1681, 1679, 1654, 1679, 1682, 1685]
ch3 : [2905, 2905, 2901, 2903, 2916, 2907, 2903, 2905, 2909, 2904]
ch0 : [2429, 2396, 2345, 2339, 2457, 2353, 2302, 2369, 2367, 2394]
ch1 : [3194, 3189, 3208, 3193, 3192, 3194, 3197, 3192, 3196, 3192]
ch2 : [1686, 1685, 1687, 1682, 1672, 1669, 1683, 1685, 1685, 1689]
ch3 : [2906, 2903, 2901, 2900, 2905, 2904, 2908, 2903, 2905, 2903]
ch0 : [2370, 2366, 2466, 2386, 2108, 2322, 2381, 2382, 2408, 2361]
ch1 : [3192, 3193, 3195, 3194, 3195, 3194, 3191, 3194, 3195, 3196]
ch2 : [1684, 1685, 1676, 1668, 1676, 1683, 1691, 1688, 1683, 1685]
ch3 : [2905, 2902, 2904, 2905, 2902, 2908, 2906, 2906, 2911, 2901]
ch0 : [2346, 2461, 2399, 2296, 2376, 2381, 2392, 2377, 2373, 2464]
ch1 : [3190, 3193, 3192, 3195, 3200, 3194, 3195, 3189, 3194, 3196]
ch2 : [1684, 1673, 1673, 1684, 1692, 1688, 1687, 1688, 1683, 1682]
ch3 : [2903, 2905, 2906, 2909, 2906, 2907, 2905, 2902, 2899, 2905]
ch0 : [2443, 2112, 2328, 2367, 2387, 2419, 2352, 2337, 2463, 2417]
ch1 : [3193, 3198, 3195, 3202, 3193, 3192, 3194, 3192, 3180, 3191]
ch2 : [1669, 1685, 1690, 1691, 1685, 1683, 1682, 1681, 1672, 1673]
ch3 : [2903, 2902, 2904, 2895, 2905, 2902, 2899, 2900, 2903, 2906]
ch0 : [2276, 2372, 2378, 2393, 2383, 2351, 2463, 2374, 2082, 2323]
ch1 : [3187, 3190, 3181, 3191, 3187, 3195, 3192, 3197, 3197, 3187]
ch2 : [1689, 1690, 1682, 1689, 1682, 1684, 1682, 1667, 1680, 1690]
ch3 : [2899, 2908, 2902, 2902, 2904, 2901, 2899, 2900, 2902, 2905]
ch0 : [2365, 2391, 2412, 2348, 2337, 2466, 2421, 2279, 2367, 2372]
ch1 : [3195, 3196, 3200, 3197, 3193, 3192, 3190, 3193, 3195, 3197]
ch2 : [1691, 1685, 1686, 1668, 1683, 1669, 1673, 1678, 1687, 1686]
ch3 : [2909, 2904, 2901, 2900, 2899, 2902, 2903, 2906, 2907, 2905]
ch0 : [2407, 2382, 2345, 2463, 2452, 2072, 2312, 2374, 2379, 2411]
ch1 : [3200, 3196, 3196, 3187, 3200, 3194, 3191, 3196, 3194, 3191]
ch2 : [1686, 1688, 1683, 1683, 1670, 1687, 1688, 1692, 1686, 1669]
ch3 : [2905, 2908, 2916, 2907, 2899, 2903, 2905, 2906, 2905, 2903]
ch0 : [2359, 2339, 2468, 2394, 2268, 2355, 2364, 2388, 2365, 2334]
ch1 : [3195, 3193, 3198, 3187, 3200, 3193, 3195, 3193, 3183, 3193]
ch2 : [1685, 1682, 1675, 1670, 1686, 1686, 1687, 1671, 1672, 1684]
ch3 : [2897, 2900, 2902, 2908, 2904, 2912, 2908, 2905, 2901, 2903]
ch0 : [2461, 2466, 2077, 2311, 2368, 2378, 2403, 2333, 2344, 2467]
ch1 : [3192, 3193, 3198, 3198, 3197, 3194, 3194, 3198, 3191, 3191]
ch2 : [1686, 1670, 1675, 1686, 1688, 1704, 1684, 1685, 1685, 1675]
ch3 : [2903, 2903, 2903, 2902, 2905, 2906, 2904, 2901, 2902, 2903]
ch0 : [2427, 2272, 2348, 2373, 2402, 2376, 2346, 2398, 2440, 2067]
ch1 : [3194, 3193, 3193, 3188, 3194, 3191, 3195, 3190, 3190, 3192]
ch2 : [1670, 1685, 1686, 1687, 1686, 1684, 1686, 1688, 1667, 1674]
ch3 : [2904, 2905, 2904, 2905, 2900, 2905, 2901, 2900, 2898, 2900]
ch0 : [2306, 2360, 2377, 2407, 2354, 2340, 2464, 2362, 2249, 2360]
ch1 : [3193, 3193, 3191, 3191, 3191, 3202, 3193, 3196, 3191, 3197]
ch2 : [1689, 1688, 1685, 1686, 1685, 1687, 1674, 1669, 1680, 1690]
ch3 : [2906, 2908, 2905, 2904, 2899, 2899, 2903, 2903, 2907, 2909]
ch0 : [2398, 2338, 2338, 2463, 2430, 2231, 2347, 2366, 2394, 2369]
ch1 : [3188, 3199, 3197, 3191, 3195, 3202, 3187, 3188, 3193, 3203]
ch2 : [1683, 1682, 1679, 1673, 1669, 1687, 1688, 1691, 1684, 1681]
ch3 : [2897, 2900, 2901, 2905, 2899, 2894, 2901, 2898, 2900, 2899]
ch0 : [2336, 2319, 2403, 2064, 2273, 2371, 2388, 2414, 2343, 2352]
ch1 : [3191, 3193, 3193, 3211, 3194, 3194, 3196, 3197, 3192, 3198]
ch2 : [1682, 1688, 1669, 1676, 1692, 1687, 1686, 1684, 1685, 1682]
ch3 : [2904, 2895, 2898, 2901, 2894, 2888, 2884, 2889, 2892, 2904]
ch0 : [2464, 2401, 2234, 2354, 2367, 2400, 2381, 2329, 2311, 2409]
ch1 : [3194, 3192, 3194, 3191, 3191, 3193, 3197, 3196, 3194, 3196]
ch2 : [1675, 1669, 1684, 1690, 1688, 1691, 1675, 1686, 1691, 1669]
ch3 : [2895, 2884, 2881, 2885, 2891, 2890, 2887, 2898, 2890, 2890]
ch0 : [2107, 2283, 2371, 2375, 2409, 2343, 2358, 2465, 2432, 2214]
ch1 : [3194, 3193, 3190, 3193, 3191, 3193, 3196, 3189, 3192, 3201]
ch2 : [1672, 1690, 1682, 1695, 1683, 1680, 1674, 1667, 1664, 1690]
ch3 : [2887, 2889, 2883, 2886, 2896, 2890, 2893, 2885, 2887, 2888]
ch0 : [2350, 2369, 2393, 2372, 2349, 2316, 2460, 2150, 2263, 2355]
ch1 : [3191, 3192, 3193, 3192, 3188, 3197, 3191, 3193, 3194, 3193]
ch2 : [1684, 1676, 1683, 1681, 1680, 1680, 1661, 1663, 1682, 1681]
ch3 : [2887, 2883, 2889, 2888, 2890, 2886, 2872, 2876, 2890, 2894]
ch0 : [2372, 2421, 2348, 2360, 2472, 2417, 2210, 2353, 2367, 2398]
ch1 : [3194, 3193, 3196, 3194, 3191, 3193, 3194, 3187, 3183, 3187]
ch2 : [1679, 1674, 1673, 1681, 1669, 1663, 1689, 1682, 1685, 1680]
ch3 : [2884, 2871, 2871, 2879, 2875, 2876, 2887, 2878, 2874, 2876]
ch0 : [2383, 2342, 2306, 2412, 2244, 2267, 2352, 2378, 2431, 2354]
ch1 : [3193, 3194, 3192, 3193, 3193, 3195, 3195, 3192, 3206, 3197]
ch2 : [1681, 1680, 1678, 1669, 1661, 1684, 1687, 1681, 1683, 1680]
ch3 : [2893, 2888, 2880, 2875, 2872, 2881, 2877, 2884, 2876, 2884]
ch0 : [2360, 2462, 2405, 2203, 2335, 2369, 2386, 2386, 2332, 2305]
ch1 : [3191, 3201, 3188, 3189, 3194, 3194, 3197, 3197, 3194, 3196]
ch2 : [1678, 1677, 1672, 1678, 1687, 1690, 1687, 1687, 1687, 1690]
ch3 : [2886, 2893, 2889, 2895, 2884, 2885, 2883, 2878, 2873, 2871]
ch0 : [2455, 2271, 2245, 2347, 2391, 2430, 2370, 2355, 2462, 2373]
ch1 : [3190, 3189, 3196, 3189, 3186, 3191, 3195, 3201, 3197, 3193]
ch2 : [1675, 1667, 1696, 1692, 1692, 1691, 1689, 1689, 1686, 1676]
ch3 : [2883, 2879, 2868, 2892, 2884, 2879, 2869, 2862, 2869, 2872]
ch0 : [2183, 2343, 2382, 2387, 2362, 2335, 2308, 2462, 2350, 2228]
ch1 : [3197, 3191, 3190, 3193, 3192, 3206, 3195, 3187, 3196, 3190]
ch2 : [1686, 1693, 1697, 1695, 1685, 1692, 1689, 1680, 1680, 1694]
ch3 : [2877, 2872, 2874, 2871, 2871, 2868, 2869, 2868, 2866, 2864]
ch0 : [2364, 2360, 2449, 2350, 2366, 2467, 2397, 2183, 2329, 2379]
ch1 : [3191, 3204, 3190, 3191, 3200, 3194, 3194, 3197, 3194, 3180]
ch2 : [1697, 1693, 1696, 1688, 1688, 1689, 1678, 1687, 1698, 1691]
ch3 : [2874, 2866, 2859, 2859, 2850, 2851, 2862, 2859, 2854, 2850]
ch0 : [2358, 2381, 2342, 2313, 2462, 2369, 2248, 2355, 2377, 2438]
ch1 : [3195, 3191, 3192, 3196, 3194, 3194, 3194, 3194, 3200, 3197]
ch2 : [1693, 1691, 1692, 1691, 1682, 1676, 1706, 1698, 1710, 1696]
ch3 : [2846, 2847, 2848, 2848, 2851, 2847, 2843, 2845, 2845, 2840]
ch0 : [2352, 2356, 2462, 2445, 2176, 2323, 2368, 2358, 2382, 2331]
ch1 : [3196, 3206, 3196, 3193, 3194, 3192, 3193, 3192, 3193, 3182]
ch2 : [1695, 1695, 1705, 1683, 1684, 1697, 1698, 1694, 1697, 1699]
ch3 : [2837, 2837, 2833, 2834, 2830, 2829, 2830, 2828, 2828, 2826]
ch0 : [2309, 2457, 2396, 2216, 2361, 2370, 2457, 2355, 2351, 2450]
ch1 : [3195, 3189, 3200, 3194, 3191, 3196, 3190, 3191, 3192, 3193]
ch2 : [1692, 1688, 1683, 1701, 1704, 1702, 1700, 1703, 1695, 1700]
ch3 : [2821, 2822, 2822, 2819, 2825, 2823, 2807, 2812, 2813, 2815]
ch0 : [2392, 2157, 2326, 2373, 2355, 2395, 2351, 2302, 2448, 2411]
ch1 : [3189, 3195, 3187, 3191, 3192, 3187, 3195, 3193, 3194, 3201]
ch2 : [1686, 1692, 1702, 1706, 1707, 1701, 1702, 1704, 1693, 1687]
ch3 : [2816, 2819, 2818, 2811, 2814, 2812, 2810, 2813, 2811, 2794]
ch0 : [2217, 2348, 2370, 2451, 2387, 2359, 2457, 2435, 2148, 2325]
ch1 : [3193, 3195, 3190, 3193, 3194, 3195, 3192, 3190, 3210, 3186]
ch2 : [1709, 1706, 1706, 1708, 1704, 1703, 1702, 1694, 1700, 1716]
ch3 : [2814, 2809, 2811, 2808, 2807, 2807, 2807, 2811, 2810, 2810]
ch0 : [2378, 2358, 2381, 2356, 2323, 2458, 2376, 2203, 2336, 2363]
ch1 : [3197, 3194, 3196, 3195, 3194, 3191, 3190, 3196, 3197, 3196]
ch2 : [1715, 1711, 1710, 1708, 1712, 1698, 1697, 1711, 1716, 1719]
ch3 : [2810, 2806, 2792, 2808, 2806, 2804, 2808, 2807, 2805, 2811]
ch0 : [2456, 2355, 2329, 2458, 2447, 2144, 2299, 2357, 2359, 2377]
ch1 : [3190, 3192, 3194, 3204, 3192, 3197, 3187, 3189, 3202, 3196]
ch2 : [1708, 1711, 1710, 1707, 1694, 1705, 1730, 1715, 1712, 1715]
ch3 : [2808, 2803, 2807, 2807, 2808, 2813, 2815, 2809, 2808, 2799]
ch0 : [2353, 2324, 2456, 2303, 2196, 2331, 2369, 2445, 2358, 2333]
ch1 : [3197, 3191, 3194, 3193, 3199, 3197, 3195, 3195, 3192, 3193]
ch2 : [1717, 1716, 1708, 1699, 1715, 1727, 1718, 1716, 1709, 1718]
ch3 : [2808, 2808, 2809, 2806, 2812, 2814, 2815, 2813, 2807, 2812]
ch0 : [2422, 2421, 2120, 2314, 2368, 2364, 2380, 2346, 2311, 2457]
ch1 : [3193, 3194, 3197, 3191, 3193, 3197, 3197, 3194, 3197, 3191]
ch2 : [1733, 1701, 1699, 1727, 1701, 1714, 1714, 1719, 1711, 1699]
ch3 : [2812, 2812, 2816, 2815, 2817, 2817, 2811, 2819, 2814, 2820]
ch0 : [2308, 2367, 2350, 2379, 2339, 2333, 2457, 2391, 2169, 2343]
ch1 : [3196, 3194, 3191, 3193, 3189, 3194, 3196, 3194, 3195, 3194]
ch2 : [1705, 1704, 1703, 1705, 1705, 1699, 1696, 1687, 1699, 1708]
ch3 : [2834, 2822, 2828, 2825, 2825, 2824, 2823, 2826, 2833, 2834]
ch0 : [2359, 2451, 2373, 2340, 2373, 2460, 2209, 2300, 2365, 2364]
ch1 : [3193, 3193, 3189, 3191, 3193, 3187, 3186, 3193, 3197, 3193]
ch2 : [1704, 1706, 1701, 1695, 1699, 1686, 1688, 1702, 1703, 1701]
ch3 : [2830, 2832, 2830, 2829, 2833, 2845, 2837, 2836, 2841, 2837]
ch0 : [2380, 2345, 2346, 2457, 2360, 2167, 2333, 2379, 2452, 2378]
ch1 : [3192, 3192, 3193, 3192, 3193, 3192, 3193, 3187, 3201, 3183]
ch2 : [1694, 1695, 1697, 1689, 1680, 1695, 1703, 1700, 1699, 1699]
ch3 : [2834, 2835, 2837, 2837, 2838, 2840, 2846, 2853, 2843, 2838]
ch0 : [2347, 2329, 2454, 2259, 2309, 2366, 2371, 2380, 2346, 2336]
ch1 : [3203, 3192, 3195, 3190, 3193, 3193, 3192, 3192, 3191, 3197]
ch2 : [1695, 1697, 1686, 1691, 1702, 1700, 1701, 1698, 1696, 1697]
ch3 : [2841, 2842, 2846, 2847, 2848, 2848, 2848, 2846, 2841, 2848]
ch0 : [2462, 2363, 2150, 2334, 2356, 2441, 2386, 2331, 2334, 2445]
ch1 : [3191, 3194, 3205, 3191, 3193, 3196, 3200, 3195, 3190, 3194]
ch2 : [1685, 1676, 1689, 1711, 1700, 1696, 1693, 1692, 1695, 1681]
ch3 : [2846, 2848, 2849, 2850, 2853, 2851, 2845, 2850, 2851, 2849]
ch0 : [2281, 2300, 2357, 2372, 2386, 2362, 2367, 2462, 2438, 2133]
ch1 : [3194, 3196, 3194, 3191, 3193, 3192, 3192, 3194, 3196, 3190]
ch2 : [1684, 1697, 1696, 1705, 1693, 1695, 1690, 1689, 1679, 1688]
ch3 : [2854, 2857, 2853, 2850, 2851, 2849, 2852, 2853, 2850, 2842]
ch0 : [2327, 2363, 2432, 2391, 2353, 2323, 2460, 2349, 2295, 2377]
ch1 : [3193, 3193, 3195, 3187, 3194, 3194, 3195, 3190, 3197, 3191]
ch2 : [1699, 1697, 1690, 1690, 1692, 1689, 1678, 1677, 1691, 1678]
ch3 : [2855, 2857, 2854, 2852, 2850, 2855, 2852, 2859, 2856, 2850]
ch0 : [2370, 2381, 2357, 2371, 2459, 2361, 2128, 2326, 2354, 2406]
ch1 : [3191, 3192, 3194, 3191, 3190, 3187, 3198, 3192, 3195, 3195]
ch2 : [1706, 1690, 1693, 1691, 1673, 1672, 1697, 1695, 1694, 1687]
ch3 : [2853, 2857, 2853, 2853, 2855, 2853, 2856, 2860, 2861, 2856]
ch0 : [2407, 2341, 2328, 2461, 2355, 2301, 2340, 2369, 2385, 2351]
ch1 : [3191, 3187, 3200, 3191, 3190, 3193, 3197, 3196, 3193, 3205]
ch2 : [1688, 1688, 1691, 1674, 1674, 1687, 1692, 1690, 1689, 1689]
ch3 : [2864, 2856, 2854, 2852, 2860, 2860, 2860, 2861, 2851, 2850]
ch0 : [2354, 2459, 2394, 2107, 2294, 2364, 2381, 2397, 2365, 2334]
ch1 : [3197, 3193, 3193, 3189, 3197, 3197, 3193, 3191, 3196, 3192]
ch2 : [1691, 1679, 1673, 1683, 1693, 1693, 1689, 1685, 1687, 1687]
ch3 : [2855, 2855, 2857, 2860, 2860, 2858, 2859, 2855, 2861, 2861]
ch0 : [2093, 2334, 2378, 2404, 2418, 2352, 2343, 2466, 2405, 2286]
ch1 : [3196, 3194, 3195, 3192, 3193, 3194, 3195, 3192, 3193, 3195]
ch2 : [1681, 1690, 1690, 1674, 1686, 1687, 1686, 1675, 1673, 1684]
ch3 : [2865, 2863, 2865, 2868, 2856, 2855, 2857, 2862, 2864, 2865]
ch0 : [2375, 2380, 2399, 2381, 2362, 2466, 2458, 2096, 2308, 2372]
ch1 : [3190, 3193, 3189, 3191, 3190, 3187, 3196, 3194, 3198, 3195]
ch2 : [1689, 1687, 1692, 1685, 1688, 1682, 1673, 1682, 1692, 1688]
ch3 : [2865, 2859, 2863, 2861, 2863, 2863, 2870, 2862, 2870, 2868]
ch0 : [2377, 2417, 2363, 2347, 2465, 2372, 2275, 2376, 2403, 2408]
ch1 : [3193, 3194, 3192, 3193, 3192, 3193, 3192, 3195, 3194, 3201]
ch2 : [1687, 1683, 1683, 1684, 1673, 1673, 1684, 1687, 1685, 1687]
ch3 : [2863, 2859, 2860, 2863, 2861, 2868, 2865, 2866, 2859, 2867]
ch0 : [2378, 2362, 2465, 2420, 2082, 2303, 2371, 2380, 2423, 2348]
ch1 : [3194, 3183, 3194, 3190, 3198, 3187, 3195, 3189, 3190, 3183]
ch2 : [1686, 1686, 1702, 1670, 1679, 1694, 1687, 1690, 1682, 1692]
ch3 : [2867, 2868, 2864, 2854, 2861, 2871, 2865, 2865, 2862, 2862]
ch0 : [2342, 2468, 2405, 2274, 2362, 2376, 2407, 2384, 2324, 2464]
ch1 : [3191, 3191, 3194, 3192, 3192, 3187, 3200, 3193, 3194, 3196]
ch2 : [1696, 1673, 1676, 1688, 1693, 1690, 1692, 1684, 1681, 1685]
ch3 : [2865, 2865, 2869, 2866, 2868, 2864, 2865, 2864, 2864, 2863]
ch0 : [2414, 2086, 2302, 2375, 2382, 2428, 2346, 2348, 2462, 2420]
ch1 : [3195, 3195, 3195, 3197, 3194, 3187, 3196, 3184, 3195, 3200]
ch2 : [1666, 1677, 1690, 1688, 1684, 1683, 1689, 1683, 1674, 1666]
ch3 : [2866, 2870, 2869, 2861, 2870, 2863, 2864, 2864, 2869, 2873]
ch0 : [2250, 2355, 2376, 2405, 2379, 2334, 2360, 2437, 2047, 2289]
ch1 : [3194, 3196, 3196, 3189, 3193, 3187, 3197, 3190, 3197, 3194]
ch2 : [1683, 1695, 1688, 1686, 1686, 1686, 1686, 1669, 1677, 1693]
ch3 : [2864, 2867, 2867, 2876, 2869, 2871, 2867, 2867, 2868, 2870]
ch0 : [2359, 2379, 2387, 2348, 2345, 2467, 2431, 2242, 2342, 2370]
ch1 : [3193, 3192, 3193, 3197, 3195, 3194, 3192, 3197, 3197, 3193]
ch2 : [1686, 1687, 1686, 1686, 1688, 1674, 1671, 1684, 1690, 1689]
ch3 : [2874, 2873, 2856, 2869, 2866, 2862, 2869, 2872, 2866, 2877]
ch0 : [2405, 2379, 2332, 2324, 2465, 2070, 2285, 2350, 2370, 2419]
ch1 : [3191, 3193, 3191, 3196, 3191, 3200, 3193, 3193, 3178, 3192]
ch2 : [1687, 1692, 1687, 1687, 1670, 1675, 1690, 1686, 1693, 1686]
ch3 : [2871, 2872, 2870, 2862, 2865, 2868, 2871, 2870, 2872, 2870]
ch0 : [2348, 2364, 2461, 2382, 2232, 2349, 2373, 2404, 2372, 2309]
ch1 : [3188, 3194, 3191, 3192, 3195, 3191, 3201, 3192, 3194, 3195]
ch2 : [1689, 1682, 1676, 1677, 1683, 1693, 1689, 1683, 1687, 1687]
ch3 : [2866, 2861, 2872, 2872, 2871, 2870, 2874, 2870, 2869, 2868]
ch0 : [2421, 2229, 2353, 2372, 2394, 2368, 2337, 2308, 2402, 2175]
ch1 : [3191, 3195, 3196, 3191, 3190, 3187, 3196, 3192, 3198, 3196]
ch2 : [1672, 1687, 1689, 1690, 1691, 1686, 1691, 1686, 1669, 1670]
ch3 : [2870, 2876, 2873, 2869, 2871, 2867, 2872, 2874, 2871, 2872]
ch0 : [2272, 2336, 2379, 2422, 2337, 2362, 2465, 2417, 2198, 2343]
ch1 : [3196, 3191, 3197, 3190, 3197, 3195, 3193, 3192, 3195, 3193]
ch2 : [1690, 1691, 1688, 1689, 1687, 1687, 1682, 1667, 1682, 1690]
ch3 : [2873, 2874, 2873, 2863, 2869, 2877, 2871, 2867, 2878, 2872]
ch0 : [2375, 2391, 2392, 2333, 2302, 2457, 2259, 2264, 2349, 2381]
ch1 : [3182, 3191, 3191, 3191, 3191, 3192, 3192, 3192, 3194, 3196]
ch2 : [1689, 1689, 1690, 1688, 1690, 1677, 1675, 1692, 1692, 1691]
ch3 : [2870, 2871, 2871, 2868, 2871, 2869, 2870, 2875, 2875, 2877]
ch0 : [2440, 2342, 2368, 2461, 2396, 2197, 2364, 2368, 2395, 2378]
ch1 : [3192, 3196, 3196, 3197, 3191, 3196, 3191, 3191, 3193, 3195]
ch2 : [1684, 1687, 1687, 1686, 1672, 1685, 1697, 1691, 1691, 1688]
ch3 : [2873, 2869, 2869, 2872, 2870, 2882, 2876, 2865, 2873, 2874]
ch0 : [2339, 2307, 2408, 2332, 2237, 2337, 2379, 2390, 2342, 2372]
ch1 : [3194, 3206, 3193, 3195, 3187, 3196, 3187, 3191, 3194, 3197]
ch2 : [1687, 1692, 1681, 1667, 1692, 1700, 1696, 1693, 1689, 1688]
ch3 : [2871, 2874, 2871, 2871, 2884, 2878, 2878, 2871, 2872, 2867]
ch0 : [2460, 2431, 2177, 2338, 2363, 2366, 2391, 2350, 2313, 2464]
ch1 : [3198, 3191, 3195, 3203, 3190, 3192, 3193, 3192, 3189, 3197]
ch2 : [1685, 1678, 1683, 1691, 1694, 1690, 1692, 1690, 1686, 1675]
ch3 : [2876, 2877, 2881, 2875, 2871, 2877, 2871, 2874, 2875, 2871]
ch0 : [2337, 2241, 2351, 2374, 2442, 2360, 2359, 2445, 2405, 2167]
ch1 : [3192, 3191, 3194, 3196, 3191, 3191, 3196, 3195, 3194, 3192]
ch2 : [1672, 1692, 1688, 1691, 1693, 1687, 1686, 1684, 1674, 1682]
ch3 : [2884, 2875, 2875, 2875, 2873, 2873, 2871, 2857, 2876, 2877]
ch0 : [2327, 2378, 2343, 2386, 2338, 2313, 2466, 2401, 2231, 2347]
ch1 : [3193, 3192, 3196, 3199, 3196, 3190, 3196, 3187, 3196, 3195]
ch2 : [1690, 1693, 1688, 1688, 1690, 1686, 1681, 1668, 1690, 1692]
ch3 : [2874, 2862, 2874, 2872, 2886, 2874, 2872, 2875, 2877, 2878]
ch0 : [2376, 2443, 2364, 2355, 2462, 2425, 2159, 2329, 2363, 2361]
ch1 : [3200, 3193, 3195, 3192, 3187, 3191, 3189, 3196, 3191, 3199]
ch2 : [1691, 1691, 1686, 1689, 1682, 1677, 1678, 1690, 1693, 1687]
ch3 : [2878, 2873, 2869, 2876, 2872, 2874, 2879, 2881, 2877, 2874]
ch0 : [2375, 2352, 2320, 2467, 2390, 2206, 2341, 2374, 2451, 2365]
ch1 : [3188, 3191, 3191, 3198, 3197, 3200, 3193, 3192, 3189, 3193]
ch2 : [1687, 1685, 1688, 1675, 1669, 1691, 1691, 1687, 1688, 1685]
ch3 : [2888, 2873, 2876, 2875, 2873, 2876, 2877, 2878, 2873, 2875]
ch0 : [2460, 2425, 2193, 2346, 2366, 2453, 2374, 2342, 2461, 2440]
ch1 : [3188, 3198, 3198, 3191, 3193, 3197, 3197, 3197, 3192, 3194]
ch2 : [1676, 1668, 1678, 1696, 1690, 1689, 1685, 1686, 1681, 1675]
ch3 : [2879, 2872, 2878, 2879, 2881, 2871, 2873, 2874, 2877, 2882]
ch0 : [2145, 2322, 2368, 2365, 2391, 2338, 2332, 2451, 2383, 2188]
ch1 : [3197, 3195, 3192, 3192, 3193, 3194, 3197, 3193, 3193, 3200]
ch2 : [1676, 1691, 1694, 1689, 1690, 1686, 1687, 1680, 1669, 1689]
ch3 : [2883, 2884, 2877, 2876, 2878, 2870, 2875, 2878, 2875, 2882]
ch0 : [2330, 2379, 2450, 2396, 2345, 2398, 2405, 2162, 2312, 2374]
ch1 : [3200, 3191, 3193, 3191, 3194, 3191, 3193, 3198, 3193, 3201]
ch2 : [1694, 1691, 1684, 1686, 1687, 1687, 1674, 1678, 1691, 1692]
ch3 : [2879, 2880, 2880, 2869, 2877, 2877, 2871, 2881, 2880, 2888]
ch0 : [2350, 2395, 2361, 2343, 2461, 2430, 2169, 2334, 2376, 2451]
ch1 : [3191, 3193, 3192, 3189, 3194, 3196, 3195, 3196, 3193, 3194]
ch2 : [1685, 1691, 1683, 1689, 1680, 1672, 1684, 1693, 1697, 1688]
ch3 : [2877, 2886, 2877, 2874, 2874, 2874, 2880, 2879, 2868, 2878]
ch0 : [2374, 2334, 2361, 2439, 2197, 2300, 2374, 2362, 2382, 2351]
ch1 : [3188, 3189, 3193, 3196, 3197, 3192, 3193, 3197, 3190, 3195]
ch2 : [1685, 1688, 1690, 1675, 1676, 1693, 1693, 1691, 1690, 1687]
ch3 : [2873, 2875, 2875, 2877, 2883, 2879, 2878, 2876, 2879, 2874]
ch0 : [2316, 2462, 2386, 2160, 2334, 2367, 2461, 2386, 2343, 2338]
ch1 : [3193, 3187, 3192, 3196, 3194, 3185, 3193, 3189, 3195, 3195]
ch2 : [1688, 1690, 1669, 1688, 1695, 1692, 1686, 1688, 1686, 1684]
ch3 : [2874, 2873, 2876, 2865, 2881, 2882, 2879, 2865, 2876, 2876]
ch0 : [2424, 2286, 2302, 2357, 2360, 2384, 2350, 2352, 2457, 2412]
ch1 : [3195, 3191, 3192, 3192, 3192, 3196, 3197, 3195, 3191, 3193]
ch2 : [1670, 1672, 1690, 1696, 1687, 1687, 1685, 1690, 1682, 1670]
ch3 : [2877, 2875, 2881, 2874, 2877, 2873, 2888, 2881, 2880, 2875]
ch0 : [2146, 2320, 2372, 2442, 2393, 2339, 2321, 2464, 2311, 2290]
ch1 : [3191, 3195, 3196, 3192, 3195, 3196, 3194, 3194, 3187, 3197]
ch2 : [1685, 1695, 1690, 1688, 1687, 1688, 1687, 1675, 1675, 1687]
ch3 : [2882, 2881, 2886, 2879, 2887, 2878, 2871, 2884, 2885, 2879]
ch0 : [2365, 2346, 2375, 2346, 2351, 2462, 2403, 2132, 2321, 2373]
ch1 : [3194, 3195, 3195, 3196, 3186, 3191, 3193, 3200, 3191, 3194]
ch2 : [1704, 1673, 1687, 1687, 1690, 1681, 1671, 1687, 1695, 1689]
ch3 : [2883, 2878, 2880, 2881, 2878, 2878, 2877, 2881, 2883, 2878]
ch0 : [2435, 2396, 2353, 2332, 2461, 2380, 2288, 2372, 2356, 2384]
ch1 : [3196, 3193, 3189, 3193, 3192, 3205, 3197, 3194, 3195, 3190]
ch2 : [1694, 1681, 1687, 1688, 1689, 1675, 1689, 1692, 1689, 1701]
ch3 : [2880, 2877, 2876, 2874, 2875, 2881, 2882, 2881, 2878, 2879]
ch0 : [2366, 2362, 2458, 2379, 2114, 2312, 2371, 2386, 2393, 2336]
ch1 : [3191, 3193, 3194, 3191, 3195, 3195, 3191, 3193, 3198, 3192]
ch2 : [1690, 1687, 1681, 1671, 1685, 1694, 1696, 1690, 1689, 1682]
ch3 : [2878, 2881, 2880, 2876, 2885, 2883, 2874, 2881, 2876, 2876]
ch0 : [2339, 2461, 2378, 2274, 2365, 2359, 2394, 2364, 2383, 2459]
ch1 : [3192, 3190, 3191, 3193, 3188, 3196, 3195, 3193, 3195, 3192]
ch2 : [1703, 1679, 1675, 1692, 1687, 1690, 1687, 1687, 1687, 1688]
ch3 : [2877, 2879, 2877, 2887, 2884, 2880, 2878, 2881, 2878, 2871]
ch0 : [2314, 2099, 2305, 2365, 2380, 2417, 2362, 2336, 2466, 2409]
ch1 : [3191, 3195, 3193, 3195, 3192, 3194, 3193, 3191, 3192, 3196]
ch2 : [1670, 1681, 1697, 1679, 1688, 1687, 1687, 1684, 1670, 1673]
ch3 : [2881, 2880, 2883, 2883, 2881, 2879, 2878, 2876, 2879, 2884]
ch0 : [2291, 2368, 2363, 2403, 2389, 2365, 2472, 2429, 2083, 2315]
ch1 : [3194, 3193, 3189, 3189, 3191, 3193, 3188, 3196, 3198, 3199]
ch2 : [1690, 1689, 1688, 1688, 1689, 1690, 1684, 1672, 1680, 1693]
ch3 : [2885, 2881, 2880, 2885, 2880, 2885, 2880, 2882, 2883, 2884]
ch0 : [2369, 2378, 2411, 2349, 2320, 2432, 2369, 2272, 2372, 2370]
ch1 : [3193, 3195, 3194, 3195, 3194, 3196, 3195, 3193, 3190, 3196]
ch2 : [1691, 1692, 1688, 1684, 1690, 1677, 1671, 1685, 1693, 1687]
ch3 : [2881, 2882, 2877, 2878, 2878, 2880, 2875, 2883, 2881, 2878]
ch0 : [2395, 2383, 2339, 2456, 2418, 2081, 2306, 2373, 2385, 2407]
ch1 : [3194, 3194, 3193, 3192, 3191, 3195, 3197, 3195, 3194, 3191]
ch2 : [1690, 1687, 1690, 1685, 1670, 1679, 1693, 1692, 1687, 1689]
ch3 : [2878, 2881, 2875, 2868, 2876, 2871, 2884, 2881, 2877, 2878]
ch0 : [2335, 2337, 2462, 2391, 2242, 2357, 2377, 2405, 2380, 2341]
ch1 : [3201, 3195, 3194, 3196, 3195, 3200, 3195, 3194, 3195, 3192]
ch2 : [1686, 1699, 1675, 1673, 1687, 1691, 1689, 1686, 1687, 1686]
ch3 : [2879, 2882, 2878, 2888, 2880, 2884, 2882, 2880, 2878, 2879]
ch0 : [2460, 2467, 2059, 2300, 2366, 2381, 2400, 2347, 2336, 2445]
ch1 : [3194, 3192, 3200, 3191, 3193, 3192, 3195, 3190, 3190, 3195]
ch2 : [1683, 1670, 1674, 1693, 1690, 1688, 1686, 1686, 1685, 1673]
ch3 : [2878, 2870, 2880, 2883, 2885, 2885, 2878, 2877, 2878, 2881]
ch0 : [2391, 2242, 2367, 2375, 2404, 2373, 2327, 2367, 2456, 2042]
ch1 : [3192, 3195, 3194, 3196, 3195, 3194, 3200, 3194, 3193, 3197]
ch2 : [1675, 1691, 1691, 1690, 1688, 1688, 1687, 1687, 1671, 1676]
ch3 : [2881, 2882, 2882, 2885, 2879, 2879, 2878, 2879, 2879, 2875]
ch0 : [2289, 2362, 2378, 2429, 2333, 2346, 2464, 2382, 2255, 2351]
ch1 : [3193, 3193, 3197, 3191, 3194, 3196, 3190, 3189, 3179, 3196]
ch2 : [1692, 1692, 1689, 1688, 1683, 1683, 1681, 1687, 1686, 1691]
ch3 : [2884, 2884, 2885, 2878, 2874, 2880, 2882, 2884, 2885, 2883]
ch0 : [2430, 2344, 2357, 2468, 2414, 2228, 2352, 2364, 2397, 2379]
ch1 : [3193, 3193, 3204, 3192, 3189, 3196, 3193, 3196, 3187, 3193]
ch2 : [1687, 1692, 1689, 1673, 1676, 1687, 1695, 1694, 1688, 1688]
ch3 : [2875, 2879, 2880, 2877, 2885, 2883, 2886, 2882, 2885, 2878]
ch0 : [2329, 2324, 2443, 2095, 2287, 2347, 2371, 2402, 2341, 2366]
ch1 : [3196, 3183, 3193, 3195, 3200, 3190, 3187, 3194, 3200, 3191]
ch2 : [1687, 1696, 1669, 1664, 1693, 1694, 1684, 1686, 1687, 1686]
ch3 : [2884, 2881, 2866, 2882, 2881, 2871, 2882, 2880, 2875, 2880]
ch0 : [2464, 2382, 2209, 2346, 2366, 2390, 2378, 2333, 2305, 2472]
ch1 : [3195, 3190, 3196, 3193, 3192, 3196, 3196, 3195, 3193, 3193]
ch2 : [1678, 1678, 1685, 1690, 1694, 1688, 1690, 1685, 1691, 1670]
ch3 : [2884, 2883, 2886, 2881, 2880, 2883, 2889, 2881, 2884, 2879]
ch0 : [2165, 2272, 2354, 2384, 2418, 2356, 2369, 2460, 2364, 2207]
ch1 : [3196, 3193, 3192, 3191, 3191, 3195, 3195, 3191, 3191, 3197]
ch2 : [1673, 1700, 1691, 1688, 1687, 1671, 1683, 1677, 1674, 1685]
ch3 : [2879, 2883, 2883, 2885, 2882, 2878, 2878, 2880, 2884, 2883]
ch0 : [2346, 2363, 2395, 2382, 2349, 2299, 2414, 2228, 2259, 2357]
ch1 : [3193, 3196, 3203, 3190, 3192, 3196, 3191, 3191, 3192, 3193]
ch2 : [1695, 1685, 1691, 1687, 1687, 1687, 1672, 1673, 1688, 1696]
ch3 : [2881, 2881, 2881, 2879, 2882, 2881, 2881, 2877, 2881, 2884]
ch0 : [2380, 2436, 2354, 2366, 2462, 2442, 2196, 2341, 2360, 2403]
ch1 : [3182, 3191, 3192, 3190, 3190, 3200, 3194, 3193, 3192, 3196]
ch2 : [1687, 1677, 1678, 1677, 1680, 1669, 1685, 1693, 1701, 1690]
ch3 : [2880, 2882, 2882, 2880, 2880, 2882, 2885, 2883, 2881, 2879]
ch0 : [2380, 2372, 2309, 2462, 2258, 2236, 2362, 2380, 2418, 2352]
ch1 : [3191, 3193, 3194, 3196, 3195, 3201, 3187, 3195, 3192, 3195]
ch2 : [1680, 1688, 1685, 1677, 1668, 1690, 1690, 1690, 1688, 1685]
ch3 : [2885, 2884, 2878, 2877, 2879, 2885, 2885, 2882, 2884, 2876]
ch0 : [2362, 2456, 2455, 2168, 2336, 2381, 2376, 2389, 2334, 2310]
ch1 : [3193, 3193, 3192, 3196, 3181, 3193, 3196, 3193, 3193, 3191]
ch2 : [1686, 1680, 1672, 1668, 1689, 1688, 1692, 1688, 1683, 1687]
ch3 : [2879, 2884, 2884, 2896, 2885, 2870, 2882, 2882, 2880, 2879]
ch0 : [2456, 2362, 2232, 2353, 2376, 2437, 2353, 2358, 2461, 2435]
ch1 : [3192, 3191, 3204, 3194, 3193, 3190, 3192, 3192, 3190, 3194]
ch2 : [1675, 1665, 1701, 1692, 1688, 1687, 1687, 1682, 1684, 1672]
ch3 : [2885, 2884, 2886, 2883, 2885, 2880, 2874, 2878, 2881, 2886]
ch0 : [2175, 2328, 2361, 2358, 2385, 2337, 2300, 2458, 2333, 2230]
ch1 : [3196, 3195, 3192, 3193, 3194, 3191, 3190, 3193, 3195, 3195]
ch2 : [1686, 1696, 1687, 1690, 1687, 1689, 1691, 1676, 1671, 1689]
ch3 : [2884, 2885, 2877, 2882, 2892, 2883, 2883, 2885, 2884, 2885]
ch0 : [2358, 2357, 2427, 2352, 2348, 2463, 2417, 2156, 2329, 2370]
ch1 : [3197, 3196, 3183, 3200, 3190, 3180, 3186, 3198, 3197, 3204]
ch2 : [1692, 1691, 1689, 1689, 1686, 1689, 1673, 1681, 1692, 1691]
ch3 : [2874, 2884, 2887, 2879, 2879, 2879, 2884, 2884, 2888, 2882]
ch0 : [2362, 2386, 2335, 2308, 2457, 2398, 2221, 2349, 2374, 2450]
ch1 : [3189, 3193, 3197, 3198, 3193, 3193, 3200, 3193, 3193, 3191]
ch2 : [1685, 1689, 1688, 1688, 1676, 1671, 1691, 1692, 1687, 1692]
ch3 : [2879, 2882, 2881, 2885, 2881, 2881, 2884, 2883, 2884, 2879]
ch0 : [2380, 2348, 2461, 2451, 2153, 2325, 2376, 2372, 2391, 2364]
ch1 : [3200, 3192, 3196, 3186, 3194, 3191, 3206, 3191, 3190, 3195]
ch2 : [1687, 1690, 1688, 1674, 1683, 1688, 1689, 1690, 1687, 1690]
ch3 : [2881, 2880, 2888, 2885, 2896, 2880, 2869, 2884, 2889, 2883]
ch0 : [2320, 2467, 2392, 2214, 2365, 2386, 2445, 2368, 2340, 2460]
ch1 : [3194, 3193, 3192, 3198, 3195, 3189, 3192, 3195, 3191, 3193]
ch2 : [1687, 1675, 1672, 1688, 1695, 1689, 1682, 1684, 1705, 1686]
ch3 : [2884, 2877, 2880, 2886, 2894, 2881, 2880, 2878, 2879, 2884]
ch0 : [2450, 2162, 2320, 2364, 2355, 2385, 2345, 2327, 2460, 2388]
ch1 : [3191, 3195, 3195, 3199, 3192, 3194, 3191, 3197, 3191, 3192]
ch2 : [1674, 1672, 1694, 1690, 1675, 1691, 1701, 1683, 1681, 1659]
ch3 : [2886, 2887, 2886, 2881, 2884, 2884, 2879, 2882, 2879, 2878]
ch0 : [2195, 2340, 2382, 2455, 2363, 2337, 2447, 2445, 2142, 2315]
ch1 : [3196, 3197, 3189, 3194, 3193, 3196, 3194, 3196, 3195, 3196]
ch2 : [1689, 1691, 1699, 1692, 1688, 1685, 1686, 1689, 1678, 1690]
ch3 : [2885, 2885, 2885, 2881, 2878, 2876, 2877, 2885, 2885, 2885]
ch0 : [2368, 2355, 2406, 2360, 2327, 2461, 2437, 2191, 2336, 2360]
ch1 : [3187, 3194, 3192, 3201, 3193, 3191, 3197, 3191, 3196, 3197]
ch2 : [1694, 1691, 1688, 1683, 1688, 1670, 1676, 1689, 1694, 1692]
ch3 : [2884, 2879, 2877, 2880, 2878, 2880, 2877, 2883, 2885, 2882]
ch0 : [2460, 2369, 2335, 2392, 2437, 2166, 2302, 2356, 2361, 2386]
ch1 : [3193, 3193, 3208, 3191, 3193, 3188, 3209, 3197, 3196, 3193]
ch2 : [1691, 1681, 1687, 1690, 1677, 1678, 1691, 1694, 1691, 1686]
ch3 : [2869, 2862, 2863, 2881, 2879, 2870, 2863, 2872, 2871, 2864]
ch0 : [2340, 2324, 2463, 2328, 2175, 2332, 2374, 2447, 2376, 2333]
ch1 : [3194, 3193, 3196, 3187, 3198, 3194, 3194, 3193, 3197, 3196]
ch2 : [1688, 1690, 1679, 1666, 1688, 1695, 1693, 1692, 1703, 1686]
ch3 : [2866, 2868, 2865, 2869, 2865, 2869, 2871, 2863, 2853, 2849]
ch0 : [2333, 2399, 2241, 2286, 2362, 2355, 2383, 2350, 2359, 2456]
ch1 : [3191, 3197, 3194, 3191, 3197, 3183, 3194, 3193, 3195, 3191]
ch2 : [1690, 1673, 1672, 1691, 1685, 1686, 1688, 1680, 1684, 1664]
ch3 : [2867, 2875, 2877, 2873, 2866, 2863, 2861, 2861, 2858, 2866]
ch0 : [2408, 2158, 2329, 2380, 2455, 2382, 2342, 2335, 2431, 2276]
ch1 : [3193, 3194, 3196, 3193, 3192, 3194, 3187, 3196, 3191, 3193]
ch2 : [1665, 1675, 1685, 1681, 1684, 1686, 1686, 1679, 1673, 1669]
ch3 : [2860, 2860, 2868, 2869, 2868, 2862, 2865, 2861, 2867, 2849]
ch0 : [2301, 2375, 2354, 2384, 2363, 2347, 2458, 2431, 2143, 2327]
ch1 : [3194, 3208, 3197, 3192, 3193, 3197, 3194, 3196, 3194, 3203]
ch2 : [1686, 1687, 1696, 1686, 1683, 1679, 1674, 1665, 1679, 1690]
ch3 : [2854, 2847, 2866, 2866, 2861, 2865, 2865, 2858, 2864, 2867]
ch0 : [2368, 2455, 2382, 2342, 2338, 2454, 2326, 2298, 2367, 2361]
ch1 : [3203, 3190, 3196, 3192, 3192, 3187, 3201, 3192, 3195, 3191]
ch2 : [1690, 1687, 1682, 1684, 1689, 1674, 1679, 1688, 1693, 1689]
ch3 : [2864, 2857, 2864, 2859, 2855, 2862, 2869, 2864, 2866, 2860]
ch0 : [2384, 2360, 2358, 2461, 2417, 2111, 2328, 2366, 2429, 2402]
ch1 : [3207, 3191, 3197, 3196, 3188, 3190, 3191, 3193, 3192, 3197]
ch2 : [1688, 1689, 1691, 1687, 1667, 1686, 1695, 1693, 1685, 1692]
ch3 : [2860, 2860, 2864, 2863, 2849, 2854, 2856, 2852, 2852, 2856]
ch0 : [2459, 2344, 2131, 2330, 2376, 2388, 2402, 2339, 2338, 2462]
ch1 : [3196, 3193, 3190, 3193, 3194, 3191, 3194, 3197, 3198, 3192]
ch2 : [1689, 1678, 1688, 1698, 1698, 1697, 1693, 1698, 1688, 1685]
ch3 : [2859, 2844, 2851, 2850, 2851, 2847, 2846, 2844, 2847, 2843]
ch0 : [2347, 2280, 2363, 2364, 2391, 2364, 2361, 2460, 2458, 2113]
ch1 : [3193, 3194, 3195, 3190, 3188, 3198, 3190, 3195, 3192, 3191]
ch2 : [1682, 1698, 1698, 1705, 1690, 1698, 1704, 1696, 1681, 1691]
ch3 : [2839, 2839, 2845, 2849, 2841, 2835, 2834, 2828, 2825, 2825]
ch0 : [2320, 2376, 2382, 2404, 2353, 2340, 2455, 2434, 2277, 2367]
ch1 : [3193, 3192, 3194, 3200, 3195, 3197, 3187, 3197, 3193, 3182]
ch2 : [1707, 1702, 1699, 1703, 1701, 1700, 1676, 1687, 1706, 1706]
ch3 : [2830, 2827, 2824, 2825, 2815, 2820, 2824, 2820, 2816, 2803]
ch0 : [2367, 2410, 2367, 2357, 2464, 2393, 2083, 2323, 2367, 2385]
ch1 : [3192, 3187, 3190, 3191, 3191, 3192, 3199, 3192, 3196, 3189]
ch2 : [1707, 1703, 1718, 1705, 1702, 1690, 1699, 1710, 1711, 1704]
ch3 : [2802, 2808, 2809, 2812, 2811, 2802, 2805, 2809, 2805, 2806]
ch0 : [2402, 2341, 2336, 2465, 2379, 2261, 2364, 2363, 2394, 2372]
ch1 : [3193, 3193, 3195, 3192, 3188, 3199, 3197, 3189, 3196, 3196]
ch2 : [1705, 1708, 1705, 1693, 1689, 1706, 1710, 1709, 1702, 1706]
ch3 : [2801, 2800, 2799, 2804, 2805, 2806, 2802, 2801, 2798, 2799]
ch0 : [2356, 2460, 2410, 2068, 2300, 2355, 2379, 2419, 2355, 2339]
ch1 : [3193, 3193, 3203, 3200, 3195, 3195, 3194, 3196, 3192, 3194]
ch2 : [1708, 1703, 1688, 1699, 1713, 1708, 1716, 1705, 1706, 1707]
ch3 : [2796, 2805, 2792, 2796, 2797, 2797, 2795, 2789, 2782, 2786]
ch0 : [2068, 2283, 2356, 2370, 2417, 2348, 2337, 2460, 2383, 2251]
ch1 : [3196, 3200, 3193, 3196, 3193, 3192, 3191, 3193, 3196, 3197]
ch2 : [1707, 1717, 1716, 1699, 1711, 1707, 1717, 1705, 1701, 1714]
ch3 : [2784, 2785, 2786, 2782, 2778, 2780, 2779, 2781, 2785, 2785]
ch0 : [2338, 2364, 2393, 2357, 2325, 2429, 2436, 2064, 2301, 2359]
ch1 : [3197, 3194, 3194, 3192, 3193, 3185, 3193, 3194, 3193, 3192]
ch2 : [1715, 1717, 1715, 1715, 1717, 1713, 1699, 1705, 1721, 1719]
ch3 : [2783, 2782, 2779, 2777, 2781, 2784, 2781, 2782, 2788, 2785]
ch0 : [2382, 2415, 2345, 2337, 2478, 2452, 2228, 2367, 2357, 2392]
ch1 : [3191, 3184, 3191, 3193, 3193, 3193, 3197, 3193, 3193, 3191]
ch2 : [1718, 1714, 1717, 1715, 1705, 1703, 1714, 1719, 1717, 1712]
ch3 : [2788, 2783, 2781, 2790, 2785, 2787, 2792, 2787, 2787, 2789]
ch0 : [2391, 2329, 2337, 2404, 2052, 2300, 2361, 2380, 2417, 2362]
ch1 : [3187, 3202, 3190, 3191, 3195, 3193, 3199, 3186, 3192, 3193]
ch2 : [1713, 1717, 1716, 1694, 1704, 1719, 1720, 1716, 1716, 1711]
ch3 : [2788, 2793, 2791, 2790, 2793, 2796, 2798, 2796, 2792, 2787]
ch0 : [2336, 2463, 2402, 2236, 2356, 2365, 2400, 2381, 2333, 2316]
ch1 : [3196, 3192, 3192, 3196, 3192, 3196, 3189, 3193, 3191, 3195]
ch2 : [1711, 1704, 1700, 1719, 1719, 1718, 1713, 1712, 1708, 1708]
ch3 : [2794, 2797, 2803, 2809, 2800, 2799, 2802, 2803, 2806, 2807]
ch0 : [2417, 2052, 2287, 2362, 2394, 2421, 2336, 2348, 2478, 2401]
ch1 : [3190, 3194, 3196, 3197, 3196, 3193, 3194, 3191, 3190, 3191]
ch2 : [1700, 1694, 1716, 1711, 1714, 1709, 1705, 1723, 1696, 1702]
ch3 : [2802, 2806, 2809, 2809, 2804, 2803, 2804, 2806, 2812, 2810]
ch0 : [2233, 2331, 2370, 2391, 2364, 2325, 2311, 2423, 2110, 2275]
ch1 : [3198, 3198, 3194, 3193, 3197, 3194, 3194, 3194, 3197, 3192]
ch2 : [1703, 1713, 1727, 1709, 1706, 1705, 1701, 1690, 1692, 1704]
ch3 : [2811, 2812, 2810, 2811, 2812, 2811, 2814, 2813, 2812, 2815]
ch0 : [2375, 2375, 2441, 2352, 2357, 2464, 2416, 2221, 2343, 2361]
ch1 : [3192, 3192, 3193, 3197, 3194, 3193, 3195, 3195, 3194, 3196]
ch2 : [1709, 1707, 1699, 1706, 1703, 1681, 1691, 1704, 1703, 1706]
ch3 : [2816, 2811, 2810, 2816, 2815, 2816, 2825, 2825, 2820, 2822]
ch0 : [2396, 2381, 2322, 2305, 2452, 2153, 2249, 2362, 2376, 2421]
ch1 : [3194, 3193, 3194, 3206, 3193, 3195, 3196, 3197, 3196, 3197]
ch2 : [1703, 1716, 1707, 1703, 1682, 1684, 1704, 1705, 1703, 1699]
ch3 : [2826, 2823, 2824, 2824, 2823, 2819, 2839, 2828, 2832, 2831]
ch0 : [2331, 2343, 2459, 2434, 2211, 2352, 2368, 2406, 2379, 2343]
ch1 : [3194, 3192, 3191, 3193, 3194, 3193, 3184, 3192, 3187, 3196]
ch2 : [1702, 1697, 1693, 1685, 1693, 1703, 1703, 1703, 1698, 1705]
ch3 : [2829, 2826, 2832, 2828, 2832, 2833, 2829, 2833, 2836, 2832]
ch0 : [2427, 2191, 2358, 2374, 2402, 2386, 2351, 2321, 2456, 2253]
ch1 : [3190, 3194, 3192, 3192, 3196, 3196, 3195, 3193, 3206, 3195]
ch2 : [1682, 1689, 1700, 1700, 1701, 1694, 1694, 1694, 1683, 1680]
ch3 : [2840, 2839, 2837, 2834, 2835, 2829, 2834, 2832, 2836, 2837]
ch0 : [2260, 2354, 2373, 2421, 2323, 2378, 2459, 2385, 2196, 2341]
ch1 : [3196, 3196, 3194, 3189, 3200, 3191, 3193, 3192, 3205, 3177]
ch2 : [1699, 1696, 1694, 1691, 1693, 1691, 1689, 1677, 1685, 1694]
ch3 : [2840, 2836, 2840, 2835, 2836, 2835, 2837, 2840, 2840, 2848]
ch0 : [2361, 2393, 2387, 2341, 2306, 2463, 2297, 2236, 2372, 2371]
ch1 : [3194, 3193, 3187, 3194, 3191, 3191, 3192, 3189, 3193, 3196]
ch2 : [1697, 1696, 1692, 1693, 1693, 1683, 1671, 1694, 1696, 1694]
ch3 : [2841, 2846, 2837, 2840, 2835, 2839, 2836, 2842, 2843, 2844]
ch0 : [2429, 2365, 2359, 2460, 2422, 2166, 2347, 2371, 2382, 2392]
ch1 : [3192, 3197, 3192, 3196, 3186, 3196, 3194, 3194, 3193, 3192]
ch2 : [1690, 1689, 1686, 1685, 1676, 1693, 1690, 1691, 1692, 1692]
ch3 : [2839, 2840, 2838, 2839, 2844, 2846, 2843, 2845, 2840, 2846]
ch0 : [2351, 2313, 2451, 2391, 2236, 2356, 2380, 2433, 2377, 2354]
ch1 : [3194, 3186, 3196, 3194, 3193, 3194, 3195, 3193, 3196, 3195]
ch2 : [1689, 1689, 1673, 1671, 1689, 1694, 1689, 1688, 1690, 1693]
ch3 : [2845, 2843, 2841, 2849, 2843, 2847, 2849, 2848, 2841, 2843]
ch0 : [2463, 2465, 2173, 2334, 2376, 2375, 2399, 2352, 2326, 2452]
ch1 : [3196, 3191, 3196, 3190, 3191, 3192, 3195, 3190, 3195, 3208]
ch2 : [1682, 1657, 1680, 1687, 1689, 1689, 1679, 1684, 1686, 1685]
ch3 : [2845, 2845, 2862, 2847, 2848, 2846, 2843, 2845, 2848, 2842]
ch0 : [2382, 2227, 2353, 2409, 2463, 2368, 2351, 2462, 2445, 2168]
ch1 : [3193, 3195, 3194, 3196, 3193, 3188, 3196, 3195, 3197, 3191]
ch2 : [1668, 1684, 1704, 1694, 1686, 1684, 1682, 1683, 1669, 1680]
ch3 : [2846, 2847, 2847, 2847, 2844, 2848, 2848, 2846, 2852, 2851]
ch0 : [2344, 2377, 2379, 2399, 2368, 2333, 2467, 2325, 2237, 2355]
ch1 : [3201, 3191, 3191, 3193, 3197, 3191, 3193, 3196, 3197, 3191]
ch2 : [1691, 1687, 1686, 1688, 1686, 1690, 1672, 1670, 1688, 1705]
ch3 : [2850, 2856, 2847, 2846, 2845, 2849, 2843, 2848, 2851, 2850]
ch0 : [2381, 2460, 2388, 2351, 2464, 2455, 2139, 2333, 2373, 2359]
ch1 : [3193, 3194, 3191, 3191, 3192, 3195, 3190, 3182, 3196, 3187]
ch2 : [1693, 1683, 1685, 1686, 1689, 1674, 1681, 1690, 1695, 1688]
ch3 : [2854, 2848, 2846, 2845, 2852, 2847, 2854, 2852, 2850, 2853]
ch0 : [2384, 2350, 2324, 2467, 2390, 2211, 2354, 2375, 2461, 2379]
ch1 : [3195, 3192, 3195, 3198, 3197, 3198, 3193, 3187, 3194, 3191]
ch2 : [1690, 1684, 1687, 1675, 1668, 1688, 1695, 1689, 1689, 1685]
ch3 : [2847, 2850, 2850, 2852, 2849, 2851, 2855, 2856, 2852, 2848]
ch0 : [2345, 2455, 2426, 2144, 2325, 2375, 2363, 2377, 2363, 2342]
ch1 : [3202, 3191, 3193, 3193, 3193, 3190, 3195, 3188, 3193, 3197]
ch2 : [1687, 1684, 1674, 1680, 1686, 1692, 1688, 1686, 1688, 1689]
ch3 : [2849, 2851, 2854, 2856, 2852, 2851, 2854, 2850, 2852, 2853]
ch0 : [2471, 2376, 2185, 2344, 2381, 2458, 2389, 2328, 2404, 2437]
ch1 : [3190, 3196, 3201, 3190, 3196, 3195, 3190, 3190, 3191, 3187]
ch2 : [1679, 1672, 1688, 1694, 1690, 1691, 1689, 1686, 1694, 1671]
ch3 : [2851, 2854, 2856, 2853, 2857, 2852, 2852, 2847, 2852, 2846]
ch0 : [2160, 2311, 2375, 2364, 2393, 2340, 2341, 2459, 2399, 2184]
ch1 : [3194, 3195, 3198, 3195, 3191, 3190, 3194, 3190, 3187, 3200]
ch2 : [1680, 1680, 1693, 1691, 1689, 1691, 1692, 1684, 1672, 1692]
ch3 : [2860, 2864, 2858, 2855, 2853, 2842, 2856, 2855, 2856, 2857]
ch0 : [2346, 2374, 2461, 2399, 2333, 2361, 2434, 2238, 2300, 2374]
ch1 : [3194, 3193, 3192, 3188, 3195, 3191, 3194, 3187, 3189, 3191]
ch2 : [1693, 1696, 1690, 1677, 1689, 1682, 1677, 1676, 1692, 1699]
ch3 : [2851, 2859, 2851, 2853, 2851, 2852, 2851, 2861, 2856, 2857]
ch0 : [2363, 2386, 2354, 2358, 2468, 2390, 2151, 2332, 2383, 2450]
ch1 : [3193, 3188, 3190, 3191, 3195, 3194, 3196, 3191, 3195, 3190]
ch2 : [1691, 1692, 1693, 1688, 1683, 1675, 1689, 1694, 1695, 1694]
ch3 : [2853, 2850, 2856, 2857, 2853, 2851, 2857, 2864, 2856, 2854]
ch0 : [2375, 2338, 2331, 2421, 2251, 2301, 2369, 2359, 2391, 2349]
ch1 : [3193, 3196, 3179, 3195, 3200, 3191, 3194, 3193, 3192, 3193]
ch2 : [1688, 1684, 1692, 1675, 1676, 1691, 1696, 1691, 1690, 1689]
ch3 : [2852, 2856, 2855, 2856, 2860, 2858, 2859, 2856, 2856, 2857]
ch0 : [2359, 2468, 2399, 2136, 2329, 2362, 2446, 2381, 2336, 2348]
ch1 : [3189, 3194, 3192, 3199, 3194, 3191, 3198, 3201, 3196, 3192]
ch2 : [1689, 1687, 1665, 1686, 1694, 1694, 1691, 1689, 1689, 1695]
ch3 : [2858, 2855, 2855, 2856, 2862, 2857, 2860, 2854, 2854, 2855]
ch0 : [2451, 2330, 2291, 2364, 2370, 2388, 2352, 2377, 2462, 2398]
ch1 : [3197, 3195, 3186, 3193, 3192, 3198, 3192, 3200, 3187, 3195]
ch2 : [1682, 1680, 1693, 1695, 1695, 1691, 1687, 1691, 1684, 1680]
ch3 : [2860, 2862, 2860, 2858, 2855, 2859, 2859, 2858, 2861, 2864]
ch0 : [2141, 2322, 2363, 2439, 2407, 2330, 2333, 2452, 2311, 2275]
ch1 : [3195, 3195, 3193, 3196, 3190, 3203, 3184, 3194, 3195, 3194]
ch2 : [1685, 1697, 1697, 1697, 1701, 1693, 1693, 1681, 1682, 1694]
ch3 : [2872, 2855, 2864, 2859, 2854, 2856, 2859, 2861, 2859, 2847]
ch0 : [2367, 2381, 2395, 2397, 2380, 2464, 2372, 2119, 2321, 2374]
ch1 : [3192, 3191, 3192, 3191, 3195, 3195, 3193, 3199, 3194, 3191]
ch2 : [1697, 1695, 1695, 1693, 1695, 1687, 1665, 1690, 1697, 1699]
ch3 : [2859, 2854, 2857, 2861, 2857, 2859, 2859, 2857, 2858, 2862]
ch0 : [2376, 2406, 2350, 2341, 2453, 2407, 2297, 2385, 2371, 2391]
ch1 : [3194, 3194, 3190, 3193, 3192, 3192, 3194, 3196, 3191, 3190]
ch2 : [1695, 1691, 1692, 1696, 1680, 1678, 1697, 1697, 1709, 1694]
ch3 : [2862, 2857, 2861, 2859, 2855, 2866, 2865, 2860, 2860, 2861]
ch0 : [2372, 2358, 2465, 2403, 2096, 2309, 2373, 2362, 2434, 2347]
ch1 : [3193, 3189, 3194, 3196, 3197, 3194, 3198, 3195, 3197, 3194]
ch2 : [1693, 1677, 1692, 1675, 1687, 1696, 1696, 1693, 1690, 1695]
ch3 : [2860, 2862, 2858, 2859, 2863, 2855, 2865, 2860, 2860, 2858]
ch0 : [2338, 2464, 2390, 2270, 2369, 2367, 2394, 2368, 2344, 2462]
ch1 : [3190, 3195, 3190, 3195, 3189, 3202, 3193, 3193, 3193, 3191]
ch2 : [1690, 1679, 1680, 1693, 1697, 1695, 1685, 1678, 1689, 1687]
ch3 : [2859, 2861, 2863, 2861, 2863, 2860, 2861, 2858, 2860, 2863]
ch0 : [2463, 2089, 2314, 2368, 2370, 2402, 2354, 2330, 2464, 2374]
ch1 : [3193, 3197, 3193, 3192, 3205, 3192, 3197, 3191, 3189, 3193]
ch2 : [1679, 1683, 1696, 1690, 1691, 1690, 1689, 1690, 1678, 1686]
ch3 : [2863, 2864, 2875, 2864, 2860, 2861, 2857, 2863, 2862, 2864]
ch0 : [2363, 2369, 2414, 2357, 2351, 2462, 2375, 2264, 2360, 2374]
ch1 : [3196, 3195, 3198, 3193, 3196, 3191, 3194, 3193, 3192, 3196]
ch2 : [1692, 1689, 1692, 1683, 1689, 1681, 1675, 1688, 1694, 1695]
ch3 : [2868, 2863, 2860, 2860, 2858, 2859, 2866, 2855, 2863, 2862]
ch0 : [2395, 2381, 2321, 2386, 2423, 2065, 2293, 2364, 2379, 2415]
ch1 : [3192, 3191, 3195, 3190, 3191, 3196, 3192, 3195, 3184, 3198]
ch2 : [1687, 1685, 1692, 1688, 1673, 1687, 1687, 1694, 1695, 1690]
ch3 : [2862, 2859, 2866, 2867, 2859, 2859, 2866, 2867, 2852, 2860]
ch0 : [2342, 2351, 2466, 2410, 2244, 2372, 2372, 2390, 2393, 2329]
ch1 : [3191, 3193, 3192, 3190, 3196, 3195, 3192, 3191, 3192, 3196]
ch2 : [1687, 1688, 1674, 1679, 1688, 1696, 1693, 1695, 1689, 1695]
ch3 : [2860, 2859, 2862, 2867, 2869, 2868, 2865, 2863, 2858, 2863]
ch0 : [2311, 2416, 2053, 2286, 2369, 2385, 2424, 2344, 2349, 2463]
ch1 : [3181, 3196, 3196, 3198, 3192, 3203, 3191, 3198, 3195, 3188]
ch2 : [1690, 1675, 1677, 1695, 1694, 1692, 1685, 1684, 1686, 1684]
ch3 : [2863, 2863, 2864, 2866, 2866, 2880, 2858, 2863, 2863, 2871]
ch0 : [2363, 2251, 2362, 2378, 2396, 2372, 2322, 2318, 2430, 2090]
ch1 : [3195, 3196, 3191, 3191, 3192, 3193, 3196, 3190, 3196, 3196]
ch2 : [1676, 1686, 1698, 1692, 1692, 1692, 1690, 1690, 1676, 1681]
ch3 : [2868, 2870, 2864, 2861, 2861, 2864, 2865, 2870, 2858, 2876]
ch0 : [2285, 2356, 2377, 2405, 2351, 2344, 2466, 2442, 2200, 2348]
ch1 : [3194, 3197, 3192, 3193, 3196, 3197, 3197, 3193, 3197, 3192]
ch2 : [1694, 1693, 1694, 1688, 1699, 1687, 1681, 1679, 1676, 1694]
ch3 : [2868, 2867, 2867, 2858, 2862, 2862, 2865, 2868, 2869, 2870]
ch0 : [2373, 2390, 2384, 2329, 2300, 2461, 2177, 2263, 2376, 2363]
ch1 : [3193, 3194, 3193, 3181, 3193, 3196, 3197, 3196, 3193, 3196]
ch2 : [1700, 1692, 1690, 1694, 1692, 1675, 1675, 1696, 1696, 1693]
ch3 : [2862, 2865, 2868, 2864, 2869, 2865, 2863, 2868, 2870, 2866]
ch0 : [2418, 2347, 2351, 2461, 2385, 2211, 2332, 2369, 2386, 2382]
ch1 : [3192, 3194, 3195, 3184, 3192, 3196, 3187, 3195, 3192, 3195]
ch2 : [1692, 1688, 1692, 1686, 1676, 1688, 1694, 1694, 1695, 1693]
ch3 : [2865, 2861, 2868, 2865, 2871, 2871, 2871, 2873, 2868, 2863]
ch0 : [2333, 2310, 2457, 2231, 2249, 2354, 2383, 2418, 2359, 2357]
ch1 : [3195, 3194, 3192, 3197, 3196, 3193, 3200, 3191, 3196, 3193]
ch2 : [1689, 1692, 1676, 1693, 1691, 1696, 1695, 1692, 1689, 1691]
ch3 : [2865, 2870, 2864, 2866, 2866, 2865, 2871, 2865, 2863, 2859]
ch0 : [2453, 2418, 2183, 2331, 2366, 2385, 2387, 2345, 2299, 2464]
ch1 : [3193, 3196, 3190, 3195, 3191, 3193, 3192, 3191, 3190, 3190]
ch2 : [1686, 1676, 1687, 1697, 1696, 1692, 1693, 1688, 1688, 1679]
ch3 : [2866, 2869, 2867, 2876, 2862, 2863, 2866, 2864, 2867, 2864]
ch0 : [2292, 2243, 2353, 2385, 2399, 2360, 2363, 2460, 2434, 2179]
ch1 : [3194, 3200, 3193, 3193, 3191, 3191, 3190, 3192, 3191, 3197]
ch2 : [1675, 1700, 1701, 1694, 1688, 1685, 1685, 1687, 1685, 1687]
ch3 : [2864, 2867, 2869, 2869, 2865, 2862, 2864, 2868, 2870, 2873]
ch0 : [2330, 2369, 2367, 2372, 2340, 2295, 2460, 2360, 2226, 2353]
ch1 : [3193, 3192, 3196, 3191, 3198, 3193, 3193, 3195, 3193, 3196]
ch2 : [1694, 1702, 1694, 1693, 1692, 1690, 1683, 1672, 1692, 1696]
ch3 : [2876, 2872, 2867, 2868, 2866, 2864, 2867, 2868, 2871, 2872]
ch0 : [2379, 2440, 2358, 2349, 2440, 2413, 2178, 2325, 2368, 2351]
ch1 : [3191, 3195, 3191, 3193, 3192, 3193, 3196, 3195, 3187, 3193]
ch2 : [1694, 1692, 1690, 1708, 1689, 1680, 1689, 1693, 1693, 1691]
ch3 : [2872, 2869, 2864, 2865, 2866, 2869, 2870, 2871, 2868, 2868]
ch0 : [2367, 2351, 2307, 2435, 2350, 2220, 2355, 2378, 2453, 2359]
ch1 : [3193, 3201, 3195, 3192, 3197, 3194, 3197, 3197, 3197, 3194]
ch2 : [1687, 1691, 1694, 1676, 1668, 1692, 1695, 1695, 1693, 1688]
ch3 : [2869, 2863, 2865, 2865, 2867, 2873, 2872, 2869, 2867, 2862]
ch0 : [2359, 2460, 2458, 2153, 2319, 2373, 2360, 2388, 2351, 2306]
ch1 : [3191, 3194, 3195, 3195, 3192, 3189, 3202, 3194, 3197, 3199]
ch2 : [1688, 1691, 1679, 1684, 1691, 1691, 1693, 1691, 1686, 1691]
ch3 : [2866, 2866, 2872, 2870, 2874, 2867, 2869, 2868, 2872, 2868]
ch0 : [2457, 2375, 2214, 2351, 2380, 2431, 2400, 2333, 2459, 2391]
ch1 : [3192, 3195, 3196, 3187, 3196, 3192, 3190, 3190, 3195, 3195]
ch2 : [1684, 1675, 1692, 1694, 1692, 1692, 1682, 1690, 1690, 1680]
ch3 : [2869, 2868, 2869, 2875, 2870, 2863, 2862, 2866, 2869, 2869]
ch0 : [2143, 2327, 2367, 2359, 2396, 2340, 2327, 2462, 2363, 2196]
ch1 : [3196, 3193, 3191, 3191, 3194, 3198, 3195, 3195, 3192, 3195]
ch2 : [1682, 1682, 1691, 1692, 1691, 1690, 1693, 1680, 1675, 1691]
ch3 : [2871, 2871, 2870, 2862, 2867, 2868, 2866, 2865, 2870, 2868]
ch0 : [2342, 2383, 2452, 2373, 2346, 2459, 2460, 2118, 2323, 2371]
ch1 : [3183, 3196, 3192, 3193, 3193, 3196, 3196, 3193, 3191, 3192]
ch2 : [1696, 1693, 1685, 1689, 1689, 1683, 1675, 1679, 1689, 1690]
ch3 : [2872, 2873, 2868, 2868, 2868, 2866, 2871, 2873, 2870, 2868]
ch0 : [2367, 2378, 2343, 2323, 2464, 2402, 2186, 2343, 2372, 2444]
ch1 : [3196, 3192, 3192, 3198, 3191, 3194, 3192, 3192, 3195, 3194]
ch2 : [1704, 1690, 1689, 1689, 1681, 1672, 1689, 1693, 1695, 1691]
ch3 : [2862, 2868, 2867, 2869, 2867, 2869, 2869, 2872, 2870, 2873]
ch0 : [2382, 2340, 2400, 2435, 2144, 2320, 2367, 2356, 2379, 2337]
ch1 : [3193, 3201, 3190, 3196, 3197, 3197, 3193, 3192, 3193, 3181]
ch2 : [1687, 1689, 1687, 1675, 1679, 1694, 1695, 1688, 1691, 1688]
ch3 : [2866, 2863, 2865, 2871, 2873, 2872, 2867, 2870, 2870, 2867]
ch0 : [2316, 2463, 2328, 2187, 2336, 2372, 2451, 2372, 2329, 2377]
ch1 : [3197, 3192, 3195, 3196, 3195, 3197, 3194, 3195, 3191, 3193]
ch2 : [1691, 1679, 1674, 1690, 1695, 1692, 1695, 1688, 1691, 1688]
ch3 : [2872, 2868, 2868, 2861, 2871, 2872, 2871, 2869, 2869, 2867]
ch0 : [2445, 2228, 2304, 2374, 2356, 2392, 2349, 2348, 2461, 2390]
ch1 : [3192, 3196, 3196, 3181, 3195, 3196, 3193, 3194, 3192, 3195]
ch2 : [1677, 1683, 1688, 1694, 1691, 1691, 1688, 1686, 1683, 1675]
ch3 : [2872, 2877, 2872, 2871, 2872, 2868, 2870, 2870, 2865, 2868]
ch0 : [2149, 2337, 2375, 2457, 2385, 2331, 2337, 2465, 2279, 2304]
ch1 : [3195, 3195, 3193, 3191, 3189, 3194, 3201, 3197, 3193, 3197]
ch2 : [1688, 1689, 1693, 1692, 1692, 1687, 1690, 1676, 1679, 1693]
ch3 : [2872, 2868, 2872, 2874, 2866, 2868, 2871, 2872, 2872, 2875]
ch0 : [2371, 2373, 2383, 2345, 2351, 2467, 2390, 2148, 2323, 2377]
ch1 : [3193, 3192, 3191, 3190, 3195, 3192, 3196, 3207, 3183, 3195]
ch2 : [1695, 1694, 1693, 1684, 1689, 1679, 1672, 1688, 1692, 1695]
ch3 : [2871, 2868, 2869, 2871, 2869, 2867, 2868, 2871, 2872, 2874]
ch0 : [2455, 2383, 2345, 2328, 2467, 2286, 2291, 2360, 2370, 2394]
ch1 : [3200, 3194, 3195, 3200, 3192, 3194, 3196, 3192, 3189, 3196]
ch2 : [1684, 1686, 1687, 1696, 1677, 1672, 1691, 1697, 1688, 1690]
ch3 : [2872, 2870, 2867, 2871, 2871, 2872, 2871, 2873, 2872, 2869]
ch0 : [2353, 2351, 2466, 2378, 2134, 2330, 2380, 2439, 2402, 2341]
ch1 : [3197, 3193, 3194, 3193, 3196, 3195, 3200, 3193, 3195, 3194]
ch2 : [1687, 1686, 1677, 1670, 1689, 1694, 1701, 1689, 1687, 1690]
ch3 : [2870, 2874, 2871, 2868, 2873, 2877, 2875, 2880, 2867, 2872]
ch0 : [2419, 2113, 2332, 2366, 2394, 2405, 2354, 2336, 2441, 2381]
ch1 : [3200, 3197, 3194, 3191, 3193, 3194, 3195, 3205, 3191, 3192]
ch2 : [1673, 1686, 1689, 1697, 1682, 1689, 1689, 1687, 1676, 1677]
ch3 : [2859, 2870, 2871, 2873, 2873, 2869, 2869, 2868, 2872, 2873]
ch0 : [2294, 2366, 2363, 2398, 2369, 2355, 2466, 2421, 2096, 2332]
ch1 : [3192, 3195, 3192, 3195, 3192, 3193, 3197, 3192, 3195, 3197]
ch2 : [1692, 1695, 1693, 1690, 1693, 1691, 1686, 1669, 1680, 1698]
ch3 : [2872, 2870, 2867, 2868, 2870, 2868, 2870, 2871, 2874, 2877]
ch0 : [2378, 2365, 2433, 2343, 2351, 2451, 2410, 2282, 2365, 2361]
ch1 : [3191, 3191, 3190, 3195, 3196, 3192, 3191, 3195, 3193, 3196]
ch2 : [1696, 1691, 1689, 1689, 1690, 1680, 1689, 1698, 1693, 1693]
ch3 : [2874, 2872, 2870, 2865, 2872, 2871, 2874, 2874, 2872, 2869]
ch0 : [2390, 2394, 2331, 2459, 2353, 2071, 2306, 2380, 2379, 2406]
ch1 : [3194, 3197, 3193, 3194, 3193, 3197, 3194, 3191, 3195, 3192]
ch2 : [1693, 1690, 1689, 1691, 1673, 1685, 1697, 1693, 1693, 1694]
ch3 : [2871, 2870, 2871, 2875, 2869, 2872, 2874, 2877, 2869, 2871]
ch0 : [2360, 2340, 2465, 2408, 2266, 2362, 2367, 2396, 2357, 2334]
ch1 : [3193, 3194, 3193, 3194, 3193, 3195, 3191, 3189, 3196, 3197]
ch2 : [1690, 1692, 1675, 1676, 1693, 1701, 1697, 1692, 1691, 1692]
ch3 : [2866, 2873, 2870, 2874, 2874, 2871, 2871, 2873, 2866, 2872]
ch0 : [2459, 2467, 2073, 2312, 2364, 2373, 2388, 2338, 2339, 2459]
ch1 : [3193, 3192, 3193, 3194, 3197, 3196, 3192, 3195, 3193, 3197]
ch2 : [1690, 1678, 1695, 1697, 1696, 1694, 1687, 1702, 1690, 1678]
ch3 : [2874, 2873, 2873, 2877, 2878, 2874, 2868, 2865, 2863, 2867]
ch0 : [2407, 2248, 2356, 2371, 2399, 2373, 2329, 2430, 2391, 2069]
ch1 : [3193, 3190, 3190, 3195, 3192, 3194, 3196, 3192, 3192, 3201]
ch2 : [1678, 1682, 1690, 1694, 1691, 1688, 1690, 1697, 1674, 1682]
ch3 : [2876, 2874, 2874, 2870, 2872, 2866, 2872, 2875, 2870, 2872]
ch0 : [2291, 2362, 2376, 2396, 2352, 2327, 2461, 2390, 2227, 2348]
ch1 : [3196, 3194, 3197, 3189, 3199, 3194, 3197, 3193, 3192, 3201]
ch2 : [1694, 1701, 1693, 1684, 1688, 1689, 1682, 1676, 1692, 1691]
ch3 : [2874, 2876, 2872, 2869, 2862, 2863, 2871, 2873, 2874, 2872]
ch0 : [2365, 2402, 2363, 2319, 2324, 2378, 2044, 2279, 2352, 2375]
ch1 : [3185, 3195, 3194, 3193, 3190, 3196, 3194, 3191, 3192, 3195]
ch2 : [1693, 1690, 1691, 1690, 1692, 1676, 1679, 1695, 1699, 1692]
ch3 : [2876, 2871, 2869, 2873, 2866, 2862, 2871, 2876, 2879, 2873]
ch0 : [2400, 2350, 2348, 2461, 2383, 2237, 2347, 2370, 2392, 2369]
ch1 : [3192, 3193, 3195, 3189, 3194, 3196, 3187, 3195, 3192, 3187]
ch2 : [1690, 1692, 1692, 1682, 1680, 1689, 1708, 1695, 1697, 1685]
ch3 : [2864, 2862, 2867, 2874, 2870, 2869, 2873, 2868, 2866, 2855]
ch0 : [2325, 2309, 2463, 2088, 2273, 2359, 2375, 2424, 2349, 2357]
ch1 : [3194, 3196, 3195, 3194, 3189, 3194, 3190, 3188, 3193, 3196]
ch2 : [1689, 1709, 1675, 1678, 1690, 1699, 1688, 1695, 1688, 1689]
ch3 : [2848, 2867, 2872, 2867, 2867, 2862, 2856, 2864, 2870, 2865]
ch0 : [2474, 2408, 2223, 2349, 2375, 2396, 2384, 2324, 2317, 2423]
ch1 : [3189, 3192, 3192, 3196, 3197, 3197, 3193, 3196, 3193, 3192]
ch2 : [1680, 1673, 1692, 1691, 1691, 1690, 1687, 1687, 1688, 1674]
ch3 : [2863, 2862, 2866, 2860, 2858, 2871, 2870, 2864, 2861, 2853]
ch0 : [2162, 2264, 2352, 2378, 2436, 2343, 2371, 2458, 2437, 2200]
ch1 : [3193, 3194, 3194, 3196, 3195, 3193, 3192, 3196, 3191, 3197]
ch2 : [1673, 1690, 1677, 1690, 1687, 1683, 1692, 1676, 1676, 1685]
ch3 : [2855, 2869, 2876, 2868, 2862, 2860, 2855, 2858, 2862, 2865]
ch0 : [2339, 2357, 2389, 2374, 2327, 2306, 2459, 2218, 2261, 2359]
ch1 : [3198, 3191, 3187, 3195, 3198, 3190, 3196, 3197, 3196, 3194]
ch2 : [1695, 1688, 1686, 1687, 1690, 1686, 1677, 1672, 1690, 1695]
ch3 : [2850, 2863, 2865, 2866, 2868, 2856, 2852, 2858, 2865, 2858]
ch0 : [2379, 2415, 2339, 2373, 2463, 2412, 2191, 2341, 2372, 2396]
ch1 : [3194, 3192, 3200, 3192, 3195, 3196, 3196, 3193, 3190, 3196]
ch2 : [1691, 1689, 1688, 1687, 1694, 1673, 1706, 1691, 1690, 1687]
ch3 : [2861, 2859, 2852, 2853, 2851, 2860, 2860, 2856, 2849, 2850]
ch0 : [2376, 2350, 2288, 2450, 2307, 2242, 2352, 2367, 2412, 2351]
ch1 : [3194, 3192, 3200, 3197, 3194, 3191, 3197, 3192, 3194, 3193]
ch2 : [1689, 1694, 1690, 1678, 1675, 1692, 1697, 1695, 1693, 1692]
ch3 : [2858, 2861, 2860, 2841, 2825, 2857, 2857, 2853, 2857, 2850]
ch0 : [2363, 2460, 2445, 2167, 2348, 2368, 2387, 2372, 2346, 2307]
ch1 : [3196, 3191, 3195, 3187, 3197, 3191, 3195, 3193, 3192, 3191]
ch2 : [1693, 1687, 1679, 1690, 1699, 1690, 1698, 1697, 1692, 1696]
ch3 : [2852, 2856, 2856, 2859, 2852, 2855, 2852, 2842, 2850, 2851]
ch0 : [2463, 2297, 2242, 2335, 2378, 2448, 2341, 2359, 2462, 2385]
ch1 : [3190, 3194, 3193, 3190, 3196, 3193, 3188, 3191, 3193, 3193]
ch2 : [1688, 1679, 1701, 1703, 1705, 1700, 1699, 1700, 1696, 1685]
ch3 : [2850, 2852, 2855, 2854, 2849, 2840, 2834, 2840, 2850, 2852]
ch0 : [2165, 2328, 2368, 2374, 2383, 2340, 2308, 2462, 2403, 2222]
ch1 : [3196, 3191, 3195, 3194, 3193, 3197, 3206, 3192, 3194, 3193]
ch2 : [1700, 1705, 1700, 1699, 1702, 1700, 1703, 1689, 1685, 1699]
ch3 : [2844, 2842, 2841, 2844, 2843, 2838, 2833, 2833, 2831, 2836]
ch0 : [2340, 2367, 2440, 2351, 2344, 2462, 2446, 2143, 2332, 2357]
ch1 : [3192, 3193, 3198, 3192, 3191, 3195, 3193, 3197, 3191, 3191]
ch2 : [1707, 1705, 1702, 1703, 1698, 1699, 1692, 1694, 1706, 1709]
ch3 : [2835, 2834, 2830, 2830, 2837, 2830, 2834, 2834, 2824, 2811]
ch0 : [2352, 2347, 2460, 2384, 2145, 2315, 2374, 2351, 2396, 2349]
ch1 : [3192, 3197, 3197, 3197, 3196, 3195, 3180, 3202, 3191, 3200]
ch2 : [1704, 1704, 1690, 1694, 1699, 1721, 1711, 1706, 1709, 1709]
ch3 : [2815, 2819, 2817, 2817, 2819, 2818, 2817, 2815, 2809, 2814]
ch0 : [2310, 2462, 2333, 2186, 2341, 2362, 2448, 2344, 2340, 2433]
ch1 : [3194, 3192, 3197, 3196, 3200, 3192, 3190, 3196, 3198, 3192]
ch2 : [1706, 1696, 1689, 1713, 1717, 1718, 1710, 1701, 1709, 1711]
ch3 : [2810, 2812, 2807, 2814, 2810, 2812, 2808, 2806, 2808, 2804]
ch0 : [2449, 2123, 2328, 2365, 2354, 2381, 2335, 2309, 2465, 2358]
ch1 : [3195, 3203, 3191, 3193, 3191, 3192, 3195, 3196, 3193, 3195]
ch2 : [1703, 1700, 1718, 1716, 1720, 1713, 1709, 1718, 1706, 1698]
ch3 : [2808, 2810, 2808, 2805, 2806, 2803, 2805, 2803, 2808, 2804]
ch0 : [2193, 2323, 2376, 2442, 2360, 2335, 2430, 2454, 2136, 2299]
ch1 : [3195, 3187, 3188, 3194, 3194, 3193, 3191, 3206, 3196, 3193]
ch2 : [1713, 1720, 1716, 1717, 1715, 1714, 1714, 1701, 1704, 1713]
ch3 : [2809, 2815, 2808, 2807, 2801, 2805, 2807, 2806, 2812, 2808]
ch0 : [2370, 2364, 2376, 2335, 2328, 2459, 2366, 2167, 2334, 2359]
ch1 : [3191, 3197, 3195, 3191, 3197, 3191, 3191, 3196, 3196, 3192]
ch2 : [1713, 1715, 1713, 1718, 1716, 1706, 1696, 1715, 1717, 1719]
ch3 : [2821, 2808, 2805, 2797, 2804, 2805, 2808, 2811, 2815, 2809]
ch0 : [2455, 2375, 2341, 2354, 2449, 2176, 2299, 2353, 2364, 2375]
ch1 : [3191, 3193, 3189, 3187, 3194, 3196, 3195, 3198, 3196, 3191]
ch2 : [1718, 1714, 1713, 1711, 1696, 1702, 1716, 1720, 1716, 1715]
ch3 : [2811, 2804, 2813, 2813, 2808, 2813, 2817, 2815, 2814, 2813]
ch0 : [2342, 2322, 2459, 2383, 2152, 2318, 2355, 2442, 2376, 2331]
ch1 : [3196, 3192, 3192, 3191, 3194, 3182, 3195, 3193, 3195, 3196]
ch2 : [1715, 1715, 1703, 1700, 1714, 1716, 1716, 1713, 1708, 1711]
ch3 : [2816, 2812, 2814, 2811, 2814, 2819, 2814, 2817, 2813, 2815]
ch0 : [2338, 2447, 2248, 2292, 2357, 2366, 2371, 2343, 2340, 2462]
ch1 : [3196, 3193, 3194, 3194, 3191, 3193, 3196, 3193, 3195, 3193]
ch2 : [1711, 1696, 1698, 1713, 1717, 1712, 1710, 1713, 1697, 1701]
ch3 : [2817, 2815, 2821, 2820, 2819, 2815, 2820, 2819, 2819, 2820]
ch0 : [2377, 2131, 2324, 2370, 2438, 2383, 2340, 2330, 2461, 2285]
ch1 : [3200, 3195, 3194, 3192, 3194, 3196, 3197, 3194, 3200, 3195]
ch2 : [1691, 1710, 1713, 1711, 1708, 1706, 1703, 1688, 1690, 1690]
ch3 : [2827, 2825, 2827, 2826, 2825, 2822, 2824, 2826, 2829, 2830]
ch0 : [2295, 2365, 2373, 2382, 2354, 2338, 2459, 2415, 2110, 2323]
ch1 : [3192, 3197, 3191, 3195, 3197, 3196, 3195, 3192, 3190, 3192]
ch2 : [1704, 1706, 1705, 1703, 1701, 1707, 1695, 1680, 1700, 1706]
ch3 : [2828, 2840, 2829, 2824, 2829, 2831, 2832, 2830, 2840, 2839]
ch0 : [2391, 2361, 2339, 2459, 2446, 2135, 2322, 2360, 2379, 2387]
ch1 : [3191, 3195, 3193, 3193, 3193, 3194, 3192, 3191, 3190, 3208]
ch2 : [1703, 1699, 1697, 1700, 1681, 1695, 1699, 1695, 1701, 1698]
ch3 : [2845, 2835, 2839, 2837, 2835, 2838, 2840, 2838, 2842, 2830]
ch0 : [2323, 2324, 2426, 2349, 2287, 2363, 2356, 2379, 2370, 2356]
ch1 : [3193, 3194, 3194, 3199, 3193, 3190, 3192, 3191, 3194, 3187]
ch2 : [1697, 1695, 1686, 1683, 1698, 1698, 1697, 1697, 1696, 1694]
ch3 : [2837, 2838, 2838, 2845, 2843, 2839, 2849, 2839, 2840, 2837]
ch0 : [2452, 2400, 2097, 2304, 2361, 2365, 2413, 2332, 2325, 2459]
ch1 : [3192, 3189, 3196, 3193, 3193, 3192, 3192, 3193, 3194, 3191]
ch2 : [1684, 1677, 1689, 1697, 1697, 1693, 1693, 1692, 1693, 1682]
ch3 : [2840, 2836, 2842, 2843, 2845, 2837, 2840, 2840, 2839, 2841]
ch0 : [2368, 2275, 2354, 2372, 2387, 2345, 2354, 2464, 2421, 2085]
ch1 : [3190, 3195, 3195, 3192, 3189, 3190, 3197, 3191, 3192, 3200]
ch2 : [1678, 1691, 1696, 1710, 1687, 1690, 1692, 1687, 1674, 1688]
ch3 : [2844, 2836, 2842, 2844, 2845, 2841, 2841, 2840, 2843, 2844]
ch0 : [2299, 2363, 2370, 2389, 2357, 2333, 2474, 2443, 2255, 2364]
ch1 : [3198, 3179, 3194, 3192, 3181, 3191, 3188, 3195, 3193, 3199]
ch2 : [1698, 1693, 1690, 1690, 1684, 1685, 1677, 1676, 1680, 1693]
ch3 : [2849, 2850, 2845, 2843, 2841, 2844, 2844, 2847, 2848, 2849]
ch0 : [2364, 2403, 2380, 2349, 2454, 2406, 2073, 2307, 2372, 2397]
ch1 : [3193, 3189, 3194, 3195, 3197, 3197, 3195, 3195, 3192, 3193]
ch2 : [1693, 1689, 1692, 1690, 1687, 1674, 1679, 1695, 1694, 1704]
ch3 : [2846, 2844, 2846, 2845, 2845, 2832, 2843, 2848, 2849, 2849]
ch0 : [2415, 2365, 2332, 2459, 2415, 2271, 2352, 2374, 2390, 2387]
ch1 : [3197, 3195, 3199, 3196, 3193, 3191, 3193, 3182, 3194, 3190]
ch2 : [1690, 1685, 1692, 1677, 1685, 1696, 1703, 1691, 1693, 1687]
ch3 : [2855, 2839, 2847, 2843, 2848, 2849, 2849, 2848, 2845, 2844]
ch0 : [2346, 2458, 2391, 2069, 2306, 2359, 2391, 2419, 2358, 2341]
ch1 : [3193, 3194, 3196, 3196, 3197, 3194, 3186, 3190, 3189, 3191]
ch2 : [1687, 1691, 1676, 1679, 1694, 1698, 1692, 1694, 1688, 1689]
ch3 : [2840, 2864, 2843, 2844, 2847, 2855, 2847, 2846, 2842, 2850]
ch0 : [2463, 2402, 2259, 2362, 2375, 2411, 2376, 2336, 2356, 2429]
ch1 : [3191, 3197, 3194, 3193, 3196, 3193, 3194, 3191, 3194, 3193]
ch2 : [1679, 1675, 1690, 1688, 1694, 1693, 1696, 1693, 1691, 1676]
ch3 : [2844, 2850, 2852, 2849, 2850, 2843, 2846, 2848, 2852, 2846]
ch0 : [2052, 2303, 2365, 2391, 2397, 2352, 2347, 2467, 2398, 2238]
ch1 : [3198, 3191, 3194, 3195, 3191, 3197, 3190, 3202, 3194, 3193]
ch2 : [1681, 1697, 1694, 1693, 1694, 1689, 1685, 1678, 1677, 1694]
ch3 : [2850, 2852, 2855, 2850, 2848, 2846, 2846, 2846, 2854, 2854]
ch0 : [2380, 2401, 2358, 2357, 2472, 2410, 2224, 2353, 2364, 2396]
ch1 : [3195, 3192, 3198, 3191, 3192, 3186, 3196, 3190, 3192, 3198]
ch2 : [1693, 1685, 1691, 1696, 1685, 1678, 1697, 1695, 1695, 1695]
ch3 : [2852, 2849, 2847, 2846, 2847, 2853, 2854, 2854, 2853, 2852]
ch0 : [2371, 2331, 2305, 2460, 2111, 2262, 2367, 2378, 2429, 2342]
ch1 : [3182, 3193, 3196, 3199, 3200, 3192, 3192, 3193, 3191, 3194]
ch2 : [1690, 1690, 1693, 1680, 1683, 1697, 1701, 1698, 1692, 1692]
ch3 : [2849, 2846, 2845, 2853, 2849, 2852, 2855, 2855, 2853, 2850]
ch0 : [2351, 2454, 2408, 2217, 2361, 2371, 2373, 2375, 2330, 2314]
ch1 : [3195, 3192, 3189, 3196, 3192, 3193, 3192, 3193, 3194, 3197]
ch2 : [1693, 1680, 1677, 1691, 1695, 1695, 1693, 1693, 1694, 1693]
ch3 : [2851, 2846, 2853, 2856, 2851, 2853, 2850, 2852, 2851, 2850]
ch0 : [2461, 2170, 2267, 2355, 2365, 2418, 2355, 2352, 2458, 2415]
ch1 : [3183, 3191, 3195, 3195, 3193, 3199, 3195, 3194, 3191, 3193]
ch2 : [1678, 1676, 1695, 1698, 1688, 1692, 1690, 1695, 1694, 1678]
ch3 : [2851, 2852, 2857, 2854, 2856, 2855, 2847, 2850, 2852, 2853]
ch0 : [2193, 2310, 2374, 2403, 2376, 2335, 2312, 2464, 2250, 2234]
ch1 : [3193, 3196, 3195, 3193, 3196, 3193, 3194, 3196, 3191, 3192]
ch2 : [1683, 1693, 1697, 1694, 1693, 1695, 1691, 1677, 1675, 1699]
ch3 : [2856, 2858, 2854, 2852, 2857, 2854, 2850, 2853, 2854, 2855]
ch0 : [2336, 2372, 2438, 2341, 2360, 2464, 2460, 2170, 2332, 2357]
ch1 : [3193, 3203, 3204, 3191, 3193, 3196, 3193, 3197, 3193, 3193]
ch2 : [1700, 1693, 1689, 1693, 1692, 1683, 1678, 1690, 1692, 1694]
ch3 : [2851, 2856, 2852, 2850, 2841, 2854, 2856, 2858, 2856, 2854]
ch0 : [2386, 2372, 2351, 2286, 2440, 2285, 2234, 2336, 2358, 2423]
ch1 : [3191, 3194, 3194, 3204, 3196, 3201, 3197, 3197, 3193, 3192]
ch2 : [1697, 1698, 1689, 1699, 1681, 1680, 1696, 1698, 1696, 1699]
ch3 : [2856, 2851, 2854, 2855, 2853, 2854, 2860, 2860, 2866, 2855]
ch0 : [2340, 2368, 2459, 2444, 2175, 2337, 2359, 2377, 2386, 2347]
ch1 : [3191, 3194, 3200, 3193, 3200, 3194, 3192, 3191, 3195, 3192]
ch2 : [1691, 1688, 1691, 1680, 1690, 1698, 1694, 1701, 1702, 1698]
ch3 : [2852, 2852, 2856, 2856, 2860, 2857, 2854, 2857, 2858, 2855]
ch0 : [2301, 2466, 2388, 2235, 2350, 2379, 2448, 2358, 2350, 2459]
ch1 : [3193, 3204, 3196, 3187, 3195, 3194, 3187, 3196, 3193, 3199]
ch2 : [1695, 1681, 1675, 1696, 1701, 1700, 1692, 1697, 1695, 1694]
ch3 : [2860, 2857, 2857, 2864, 2856, 2861, 2855, 2854, 2856, 2856]
ch0 : [2412, 2157, 2337, 2373, 2338, 2388, 2334, 2301, 2465, 2363]
ch1 : [3195, 3196, 3197, 3191, 3188, 3187, 3195, 3190, 3195, 3195]
ch2 : [1677, 1687, 1693, 1699, 1698, 1690, 1699, 1692, 1683, 1677]
ch3 : [2858, 2863, 2860, 2855, 2852, 2856, 2860, 2855, 2858, 2849]
ch0 : [2372, 2360, 2383, 2354, 2328, 2462, 2394, 2209, 2352, 2372]
ch1 : [3196, 3195, 3193, 3198, 3193, 3195, 3192, 3190, 3196, 3192]
ch2 : [1701, 1697, 1693, 1691, 1692, 1683, 1680, 1694, 1703, 1697]
ch3 : [2862, 2861, 2857, 2858, 2863, 2856, 2860, 2860, 2862, 2865]
ch0 : [2456, 2371, 2340, 2456, 2431, 2144, 2341, 2361, 2359, 2383]
ch1 : [3194, 3186, 3197, 3192, 3193, 3198, 3195, 3198, 3196, 3191]
ch2 : [1696, 1692, 1691, 1695, 1671, 1685, 1700, 1694, 1695, 1695]
ch3 : [2862, 2852, 2858, 2862, 2858, 2865, 2862, 2858, 2861, 2868]
ch0 : [2347, 2323, 2460, 2404, 2190, 2318, 2394, 2454, 2377, 2326]
ch1 : [3200, 3193, 3191, 3197, 3195, 3192, 3190, 3197, 3190, 3194]
ch2 : [1693, 1693, 1682, 1675, 1693, 1697, 1694, 1692, 1695, 1695]
ch3 : [2858, 2859, 2860, 2861, 2863, 2863, 2857, 2857, 2857, 2857]
ch0 : [2427, 2449, 2153, 2308, 2362, 2347, 2379, 2368, 2321, 2464]
ch1 : [3194, 3194, 3196, 3197, 3192, 3190, 3187, 3196, 3194, 3196]
ch2 : [1691, 1679, 1685, 1697, 1695, 1680, 1688, 1695, 1690, 1681]
ch3 : [2863, 2864, 2864, 2863, 2857, 2863, 2859, 2860, 2852, 2861]
ch0 : [2384, 2162, 2334, 2372, 2440, 2375, 2323, 2376, 2448, 2203]
ch1 : [3195, 3196, 3193, 3191, 3194, 3195, 3193, 3187, 3196, 3197]
ch2 : [1672, 1692, 1694, 1691, 1692, 1689, 1694, 1688, 1681, 1675]
ch3 : [2860, 2865, 2866, 2859, 2863, 2857, 2860, 2860, 2862, 2863]
ch0 : [2301, 2365, 2368, 2383, 2362, 2357, 2460, 2359, 2156, 2334]
ch1 : [3194, 3195, 3196, 3179, 3200, 3179, 3196, 3194, 3209, 3194]
ch2 : [1692, 1689, 1697, 1687, 1692, 1690, 1678, 1671, 1690, 1697]
ch3 : [2852, 2860, 2864, 2857, 2861, 2862, 2864, 2860, 2863, 2866]
ch0 : [2376, 2455, 2399, 2347, 2339, 2460, 2278, 2290, 2375, 2358]
ch1 : [3193, 3193, 3196, 3196, 3194, 3187, 3194, 3192, 3195, 3192]
ch2 : [1694, 1688, 1691, 1691, 1700, 1676, 1679, 1684, 1695, 1697]
ch3 : [2866, 2856, 2869, 2862, 2860, 2865, 2863, 2868, 2853, 2865]
ch0 : [2389, 2359, 2350, 2470, 2438, 2151, 2342, 2363, 2439, 2384]
ch1 : [3194, 3193, 3195, 3195, 3190, 3196, 3191, 3191, 3193, 3195]
ch2 : [1689, 1691, 1694, 1682, 1676, 1690, 1691, 1689, 1693, 1690]
ch3 : [2863, 2863, 2864, 2864, 2858, 2874, 2863, 2865, 2863, 2860]
ch0 : [2352, 2343, 2435, 2321, 2300, 2355, 2352, 2389, 2368, 2366]
ch1 : [3191, 3196, 3193, 3196, 3196, 3194, 3196, 3192, 3197, 3191]
ch2 : [1690, 1692, 1680, 1684, 1691, 1704, 1694, 1692, 1693, 1691]
ch3 : [2864, 2864, 2863, 2868, 2864, 2864, 2864, 2867, 2866, 2865]
ch0 : [2445, 2395, 2118, 2320, 2365, 2412, 2392, 2335, 2324, 2455]
ch1 : [3192, 3195, 3195, 3204, 3193, 3191, 3193, 3190, 3195, 3194]
ch2 : [1692, 1672, 1688, 1698, 1694, 1695, 1702, 1693, 1692, 1679]
ch3 : [2868, 2863, 2863, 2866, 2866, 2868, 2861, 2863, 2861, 2868]
ch0 : [2393, 2281, 2350, 2363, 2389, 2348, 2349, 2461, 2340, 2104]
ch1 : [3193, 3195, 3193, 3194, 3198, 3190, 3195, 3200, 3186, 3199]
ch2 : [1684, 1689, 1697, 1691, 1691, 1696, 1690, 1687, 1674, 1688]
ch3 : [2867, 2868, 2868, 2868, 2858, 2863, 2867, 2866, 2867, 2863]
ch0 : [2321, 2373, 2375, 2397, 2344, 2340, 2457, 2383, 2279, 2377]
ch1 : [3197, 3194, 3193, 3200, 3185, 3195, 3196, 3197, 3196, 3193]
ch2 : [1699, 1698, 1693, 1692, 1690, 1693, 1681, 1678, 1695, 1696]
ch3 : [2870, 2881, 2866, 2863, 2865, 2865, 2866, 2866, 2870, 2867]
ch0 : [2360, 2393, 2358, 2341, 2461, 2399, 2097, 2313, 2359, 2379]
ch1 : [3198, 3192, 3194, 3192, 3193, 3193, 3195, 3195, 3193, 3191]
ch2 : [1694, 1693, 1687, 1688, 1689, 1677, 1687, 1696, 1697, 1693]
ch3 : [2868, 2866, 2863, 2866, 2868, 2866, 2866, 2869, 2860, 2869]
ch0 : [2383, 2354, 2328, 2464, 2432, 2258, 2372, 2373, 2378, 2371]
ch1 : [3193, 3194, 3190, 3192, 3188, 3197, 3192, 3194, 3190, 3196]
ch2 : [1695, 1698, 1691, 1683, 1678, 1697, 1696, 1698, 1695, 1693]
ch3 : [2863, 2866, 2863, 2868, 2871, 2875, 2870, 2867, 2867, 2866]
ch0 : [2339, 2461, 2396, 2066, 2306, 2368, 2370, 2408, 2344, 2345]
ch1 : [3190, 3193, 3192, 3201, 3193, 3194, 3196, 3190, 3207, 3193]
ch2 : [1689, 1679, 1672, 1683, 1703, 1699, 1691, 1691, 1691, 1687]
ch3 : [2866, 2869, 2869, 2862, 2870, 2882, 2869, 2867, 2865, 2865]
ch0 : [2465, 2397, 2260, 2360, 2367, 2406, 2373, 2334, 2447, 2400]
ch1 : [3193, 3192, 3195, 3195, 3195, 3192, 3196, 3191, 3196, 3187]
ch2 : [1681, 1672, 1687, 1695, 1699, 1696, 1690, 1690, 1691, 1671]
ch3 : [2866, 2871, 2869, 2864, 2870, 2866, 2870, 2866, 2868, 2870]
ch0 : [2058, 2301, 2373, 2375, 2405, 2335, 2336, 2455, 2399, 2253]
ch1 : [3193, 3193, 3193, 3194, 3192, 3194, 3198, 3193, 3196, 3195]
ch2 : [1698, 1701, 1691, 1707, 1693, 1694, 1691, 1682, 1678, 1690]
ch3 : [2862, 2871, 2870, 2870, 2865, 2865, 2865, 2866, 2871, 2870]
ch0 : [2350, 2366, 2395, 2381, 2327, 2353, 2427, 2048, 2287, 2349]
ch1 : [3191, 3188, 3187, 3195, 3192, 3190, 3191, 3198, 3203, 3192]
ch2 : [1695, 1694, 1692, 1694, 1680, 1692, 1677, 1685, 1700, 1695]
ch3 : [2863, 2868, 2867, 2863, 2869, 2867, 2866, 2870, 2870, 2868]
ch0 : [2372, 2397, 2346, 2327, 2454, 2344, 2246, 2349, 2370, 2398]
ch1 : [3193, 3183, 3193, 3197, 3190, 3190, 3196, 3194, 3192, 3190]
ch2 : [1686, 1693, 1700, 1694, 1683, 1678, 1697, 1695, 1697, 1691]
ch3 : [2868, 2865, 2865, 2863, 2869, 2870, 2870, 2869, 2866, 2872]
ch0 : [2369, 2320, 2315, 2411, 2053, 2277, 2359, 2380, 2421, 2344]
ch1 : [3189, 3192, 3194, 3194, 3197, 3196, 3194, 3193, 3190, 3200]
ch2 : [1687, 1692, 1693, 1678, 1681, 1698, 1696, 1696, 1696, 1692]
ch3 : [2866, 2869, 2869, 2867, 2867, 2868, 2870, 2863, 2866, 2868]
ch0 : [2445, 2078, 2267, 2365, 2382, 2402, 2339, 2362, 2461, 2383]
ch1 : [3194, 3197, 3195, 3187, 3195, 3190, 3190, 3196, 3194, 3197]
ch2 : [1679, 1678, 1697, 1696, 1694, 1694, 1690, 1695, 1703, 1677]
ch3 : [2866, 2869, 2869, 2875, 2867, 2862, 2864, 2864, 2867, 2867]
ch0 : [2212, 2346, 2365, 2384, 2392, 2338, 2303, 2429, 2157, 2259]
ch1 : [3195, 3193, 3193, 3193, 3196, 3197, 3196, 3192, 3196, 3193]
ch2 : [1690, 1693, 1697, 1692, 1691, 1691, 1691, 1677, 1680, 1694]
ch3 : [2862, 2869, 2867, 2869, 2855, 2869, 2868, 2866, 2869, 2867]
ch0 : [2357, 2367, 2420, 2348, 2328, 2463, 2401, 2212, 2345, 2361]
ch1 : [3196, 3194, 3192, 3191, 3194, 3191, 3193, 3199, 3191, 3192]
ch2 : [1700, 1692, 1687, 1690, 1691, 1684, 1677, 1684, 1691, 1694]
ch3 : [2876, 2871, 2866, 2863, 2867, 2868, 2869, 2869, 2869, 2867]
ch0 : [2393, 2380, 2350, 2300, 2468, 2183, 2247, 2358, 2386, 2446]
ch1 : [3198, 3195, 3196, 3195, 3196, 3196, 3192, 3194, 3194, 3195]
ch2 : [1695, 1687, 1694, 1692, 1677, 1675, 1687, 1691, 1700, 1693]
ch3 : [2867, 2868, 2867, 2864, 2866, 2865, 2868, 2874, 2869, 2864]
ch0 : [2354, 2366, 2459, 2431, 2195, 2343, 2373, 2400, 2384, 2340]
ch1 : [3190, 3193, 3191, 3190, 3196, 3195, 3193, 3192, 3195, 3194]
ch2 : [1695, 1691, 1685, 1676, 1687, 1691, 1691, 1694, 1691, 1693]
ch3 : [2861, 2866, 2864, 2872, 2868, 2868, 2870, 2868, 2867, 2866]
ch0 : [2304, 2462, 2327, 2256, 2367, 2388, 2423, 2363, 2360, 2467]
ch1 : [3193, 3195, 3194, 3190, 3193, 3190, 3190, 3195, 3195, 3193]
ch2 : [1694, 1674, 1673, 1697, 1698, 1692, 1704, 1690, 1690, 1687]
ch3 : [2869, 2866, 2853, 2866, 2870, 2868, 2868, 2867, 2865, 2866]
ch0 : [2454, 2183, 2328, 2376, 2405, 2401, 2355, 2310, 2463, 2366]
ch1 : [3190, 3196, 3193, 3191, 3191, 3187, 3196, 3190, 3195, 3192]
ch2 : [1678, 1685, 1691, 1690, 1697, 1687, 1691, 1693, 1666, 1677]
ch3 : [2866, 2874, 2868, 2867, 2868, 2858, 2869, 2873, 2866, 2869]
ch0 : [2232, 2371, 2388, 2418, 2371, 2358, 2464, 2435, 2182, 2343]
ch1 : [3192, 3196, 3195, 3191, 3194, 3192, 3195, 3182, 3189, 3197]
ch2 : [1696, 1700, 1691, 1691, 1693, 1676, 1688, 1682, 1687, 1696]
ch3 : [2872, 2867, 2867, 2859, 2854, 2869, 2865, 2871, 2869, 2872]
ch0 : [2365, 2357, 2384, 2333, 2315, 2466, 2408, 2229, 2358, 2363]
ch1 : [3192, 3194, 3191, 3192, 3194, 3187, 3196, 3197, 3195, 3190]
ch2 : [1695, 1696, 1694, 1691, 1693, 1675, 1680, 1694, 1698, 1698]
ch3 : [2864, 2875, 2865, 2863, 2868, 2866, 2866, 2870, 2871, 2871]
ch0 : [2453, 2369, 2361, 2468, 2449, 2164, 2341, 2363, 2373, 2379]
ch1 : [3193, 3195, 3192, 3190, 3194, 3197, 3193, 3197, 3193, 3194]
ch2 : [1694, 1696, 1696, 1687, 1681, 1685, 1695, 1692, 1691, 1695]
ch3 : [2864, 2864, 2865, 2864, 2871, 2868, 2866, 2868, 2867, 2868]
ch0 : [2351, 2307, 2453, 2348, 2214, 2354, 2377, 2447, 2364, 2333]
ch1 : [3192, 3193, 3184, 3193, 3192, 3207, 3193, 3194, 3193, 3197]
ch2 : [1691, 1696, 1683, 1677, 1690, 1699, 1695, 1691, 1692, 1691]
ch3 : [2868, 2871, 2868, 2866, 2870, 2872, 2870, 2869, 2866, 2864]
ch0 : [2459, 2447, 2137, 2328, 2377, 2366, 2410, 2348, 2314, 2434]
ch1 : [3198, 3191, 3207, 3195, 3196, 3197, 3196, 3196, 3205, 3192]
ch2 : [1693, 1676, 1685, 1694, 1695, 1691, 1693, 1692, 1693, 1683]
ch3 : [2863, 2868, 2874, 2871, 2870, 2869, 2868, 2871, 2867, 2870]
ch0 : [2394, 2212, 2340, 2373, 2453, 2380, 2350, 2456, 2459, 2135]
ch1 : [3193, 3198, 3193, 3198, 3197, 3179, 3195, 3193, 3189, 3197]
ch2 : [1683, 1693, 1696, 1696, 1708, 1691, 1692, 1687, 1679, 1686]
ch3 : [2870, 2879, 2872, 2873, 2871, 2867, 2863, 2870, 2860, 2880]
ch0 : [2324, 2368, 2375, 2398, 2360, 2315, 2462, 2336, 2197, 2348]
ch1 : [3193, 3185, 3192, 3194, 3196, 3193, 3192, 3193, 3195, 3197]
ch2 : [1690, 1697, 1695, 1696, 1690, 1687, 1681, 1677, 1693, 1696]
ch3 : [2870, 2873, 2871, 2872, 2862, 2872, 2872, 2867, 2873, 2877]
ch0 : [2379, 2448, 2372, 2325, 2430, 2434, 2132, 2324, 2358, 2359]
ch1 : [3196, 3197, 3189, 3193, 3191, 3195, 3198, 3191, 3191, 3189]
ch2 : [1697, 1691, 1690, 1690, 1692, 1689, 1682, 1694, 1695, 1694]
ch3 : [2871, 2868, 2863, 2870, 2866, 2864, 2874, 2873, 2870, 2871]
ch0 : [2380, 2357, 2314, 2463, 2392, 2177, 2333, 2373, 2453, 2380]
ch1 : [3196, 3187, 3197, 3191, 3191, 3198, 3194, 3188, 3195, 3193]
ch2 : [1692, 1691, 1695, 1682, 1668, 1689, 1696, 1694, 1689, 1694]
ch3 : [2871, 2876, 2869, 2870, 2869, 2870, 2880, 2867, 2871, 2870]
ch0 : [2323, 2375, 2427, 2185, 2297, 2361, 2356, 2382, 2338, 2333]
ch1 : [3195, 3192, 3190, 3195, 3194, 3191, 3194, 3190, 3195, 3191]
ch2 : [1688, 1695, 1679, 1681, 1698, 1695, 1695, 1696, 1695, 1694]
ch3 : [2874, 2873, 2870, 2877, 2874, 2871, 2872, 2873, 2870, 2868]
ch0 : [2457, 2392, 2160, 2339, 2375, 2453, 2376, 2330, 2355, 2442]
ch1 : [3182, 3193, 3195, 3194, 3198, 3196, 3197, 3194, 3191, 3195]
ch2 : [1683, 1676, 1695, 1695, 1697, 1697, 1690, 1683, 1705, 1677]
ch3 : [2869, 2873, 2874, 2873, 2873, 2872, 2872, 2868, 2870, 2873]
ch0 : [2230, 2313, 2367, 2355, 2390, 2348, 2370, 2465, 2305, 2163]
ch1 : [3191, 3196, 3195, 3197, 3196, 3196, 3195, 3193, 3196, 3195]
ch2 : [1679, 1696, 1692, 1694, 1691, 1692, 1687, 1685, 1679, 1692]
ch3 : [2872, 2874, 2874, 2873, 2869, 2870, 2868, 2870, 2870, 2874]
ch0 : [2337, 2378, 2459, 2383, 2350, 2343, 2449, 2324, 2303, 2367]
ch1 : [3196, 3192, 3192, 3194, 3195, 3196, 3193, 3195, 3193, 3196]
ch2 : [1691, 1695, 1692, 1688, 1676, 1691, 1679, 1677, 1692, 1696]
ch3 : [2875, 2873, 2874, 2867, 2869, 2872, 2872, 2876, 2875, 2876]
ch0 : [2413, 2341, 2350, 2444, 2329, 2292, 2374, 2367, 2385, 2367]
ch1 : [3193, 3190, 3191, 3194, 3196, 3197, 3192, 3193, 3191, 3193]
ch2 : [1691, 1690, 1695, 1680, 1680, 1691, 1696, 1707, 1699, 1693]
ch3 : [2869, 2863, 2871, 2873, 2876, 2875, 2872, 2870, 2862, 2872]
ch0 : [2356, 2468, 2392, 2122, 2327, 2375, 2382, 2399, 2347, 2329]
ch1 : [3197, 3193, 3195, 3190, 3194, 3194, 3192, 3192, 3196, 3193]
ch2 : [1693, 1687, 1673, 1687, 1700, 1694, 1691, 1689, 1691, 1691]
ch3 : [2872, 2875, 2871, 2856, 2871, 2873, 2874, 2869, 2869, 2870]
ch0 : [2462, 2329, 2296, 2366, 2366, 2388, 2369, 2356, 2475, 2455]
ch1 : [3193, 3191, 3192, 3196, 3193, 3190, 3193, 3191, 3193, 3192]
ch2 : [1677, 1678, 1691, 1692, 1693, 1688, 1689, 1692, 1689, 1672]
ch3 : [2871, 2875, 2877, 2872, 2876, 2867, 2872, 2872, 2876, 2871]
ch0 : [2107, 2320, 2377, 2380, 2407, 2326, 2314, 2440, 2353, 2272]
ch1 : [3193, 3197, 3193, 3194, 3191, 3197, 3197, 3196, 3197, 3196]
ch2 : [1687, 1695, 1700, 1690, 1696, 1690, 1691, 1681, 1680, 1693]
ch3 : [2871, 2876, 2875, 2870, 2869, 2877, 2872, 2871, 2871, 2875]
ch0 : [2365, 2362, 2391, 2379, 2357, 2464, 2446, 2086, 2311, 2377]
ch1 : [3196, 3194, 3193, 3193, 3193, 3196, 3193, 3195, 3193, 3191]
ch2 : [1696, 1695, 1698, 1691, 1691, 1691, 1675, 1686, 1699, 1699]
ch3 : [2872, 2877, 2871, 2871, 2868, 2871, 2867, 2874, 2875, 2873]
ch0 : [2368, 2415, 2346, 2320, 2466, 2369, 2272, 2375, 2373, 2391]
ch1 : [3191, 3193, 3200, 3190, 3206, 3193, 3196, 3193, 3191, 3187]
ch2 : [1693, 1691, 1692, 1690, 1683, 1676, 1693, 1696, 1690, 1692]
ch3 : [2871, 2859, 2871, 2869, 2869, 2869, 2870, 2868, 2868, 2865]
ch0 : [2379, 2339, 2463, 2404, 2066, 2298, 2368, 2371, 2397, 2335]
ch1 : [3193, 3195, 3193, 3196, 3201, 3197, 3200, 3197, 3197, 3192]
ch2 : [1697, 1695, 1692, 1678, 1687, 1700, 1695, 1696, 1690, 1693]
ch3 : [2851, 2847, 2868, 2874, 2874, 2865, 2852, 2848, 2842, 2848]
ch0 : [2352, 2460, 2400, 2257, 2361, 2364, 2385, 2373, 2337, 2428]
ch1 : [3193, 3201, 3193, 3196, 3194, 3196, 3193, 3196, 3195, 3196]
ch2 : [1685, 1682, 1680, 1692, 1696, 1695, 1692, 1703, 1692, 1685]
ch3 : [2854, 2860, 2865, 2855, 2853, 2853, 2847, 2838, 2843, 2846]
ch0 : [2433, 2065, 2299, 2359, 2385, 2419, 2342, 2340, 2465, 2436]
ch1 : [3197, 3193, 3195, 3200, 3196, 3202, 3196, 3198, 3192, 3193]
ch2 : [1688, 1680, 1694, 1699, 1688, 1690, 1686, 1683, 1678, 1672]
ch3 : [2842, 2846, 2846, 2850, 2852, 2840, 2837, 2836, 2842, 2852]
ch0 : [2247, 2353, 2383, 2395, 2375, 2331, 2341, 2419, 2064, 2302]
ch1 : [3189, 3193, 3197, 3184, 3192, 3195, 3187, 3185, 3194, 3195]
ch2 : [1684, 1687, 1698, 1688, 1688, 1686, 1688, 1672, 1676, 1693]
ch3 : [2850, 2853, 2852, 2856, 2853, 2858, 2864, 2839, 2847, 2867]
ch0 : [2403, 2379, 2323, 2310, 2405, 2048, 2285, 2355, 2388, 2410]
ch1 : [3190, 3190, 3196, 3191, 3193, 3195, 3185, 3192, 3193, 3193]
ch2 : [1685, 1680, 1679, 1683, 1666, 1674, 1690, 1689, 1688, 1683]
ch3 : [2856, 2852, 2855, 2857, 2851, 2853, 2851, 2855, 2855, 2848]
ch0 : [2341, 2349, 2462, 2423, 2225, 2353, 2372, 2385, 2369, 2337]
ch1 : [3195, 3193, 3191, 3191, 3194, 3192, 3193, 3192, 3199, 3194]
ch2 : [1693, 1683, 1677, 1673, 1683, 1689, 1689, 1687, 1671, 1681]
ch3 : [2851, 2845, 2851, 2851, 2851, 2848, 2845, 2845, 2840, 2841]
ch0 : [2297, 2429, 2102, 2267, 2368, 2364, 2424, 2345, 2350, 2458]
ch1 : [3195, 3194, 3195, 3186, 3197, 3192, 3190, 3193, 3193, 3192]
ch2 : [1685, 1667, 1678, 1691, 1688, 1687, 1684, 1690, 1685, 1691]
ch3 : [2842, 2842, 2840, 2843, 2837, 2842, 2837, 2844, 2841, 2842]
ch0 : [2366, 2211, 2358, 2371, 2395, 2376, 2330, 2307, 2462, 2169]
ch1 : [3193, 3196, 3191, 3189, 3192, 3205, 3193, 3187, 3194, 3196]
ch2 : [1675, 1683, 1677, 1694, 1689, 1697, 1687, 1702, 1683, 1682]
ch3 : [2838, 2833, 2834, 2839, 2835, 2832, 2831, 2810, 2818, 2814]
ch0 : [2268, 2363, 2383, 2409, 2342, 2355, 2462, 2429, 2210, 2349]
ch1 : [3194, 3194, 3195, 3198, 3194, 3195, 3188, 3191, 3195, 3192]
ch2 : [1700, 1701, 1704, 1702, 1696, 1699, 1695, 1688, 1701, 1725]
ch3 : [2819, 2824, 2817, 2815, 2811, 2807, 2809, 2811, 2806, 2805]
ch0 : [2358, 2388, 2376, 2348, 2315, 2473, 2236, 2260, 2351, 2375]
ch1 : [3189, 3192, 3207, 3206, 3197, 3200, 3190, 3196, 3190, 3201]
ch2 : [1703, 1707, 1704, 1705, 1709, 1697, 1687, 1709, 1710, 1710]
ch3 : [2803, 2800, 2799, 2814, 2804, 2800, 2800, 2809, 2802, 2786]
ch0 : [2422, 2348, 2360, 2473, 2412, 2193, 2346, 2372, 2395, 2394]
ch1 : [3188, 3191, 3192, 3196, 3193, 3194, 3193, 3195, 3191, 3194]
ch2 : [1710, 1706, 1707, 1699, 1692, 1704, 1709, 1714, 1712, 1707]
ch3 : [2791, 2786, 2791, 2795, 2792, 2788, 2789, 2783, 2788, 2783]
ch0 : [2345, 2300, 2461, 2332, 2228, 2362, 2374, 2437, 2350, 2358]
ch1 : [3189, 3196, 3196, 3195, 3195, 3195, 3196, 3193, 3193, 3191]
ch2 : [1706, 1704, 1695, 1685, 1711, 1711, 1710, 1706, 1702, 1713]
ch3 : [2783, 2784, 2779, 2775, 2784, 2783, 2780, 2776, 2772, 2775]
ch0 : [2459, 2432, 2166, 2327, 2371, 2375, 2379, 2348, 2307, 2447]
ch1 : [3193, 3191, 3196, 3191, 3197, 3203, 3197, 3185, 3192, 3191]
ch2 : [1708, 1694, 1706, 1715, 1712, 1707, 1714, 1711, 1713, 1694]
ch3 : [2776, 2775, 2776, 2772, 2770, 2772, 2772, 2771, 2767, 2766]
ch0 : [2406, 2222, 2345, 2369, 2420, 2367, 2346, 2455, 2381, 2167]
ch1 : [3190, 3194, 3194, 3193, 3196, 3193, 3194, 3194, 3193, 3196]
ch2 : [1700, 1716, 1720, 1727, 1710, 1714, 1712, 1713, 1703, 1713]
ch3 : [2763, 2778, 2776, 2770, 2766, 2763, 2766, 2754, 2755, 2776]
ch0 : [2376, 2449, 2368, 2375, 2460, 2438, 2152, 2336, 2366, 2348]
ch1 : [3204, 3190, 3194, 3194, 3193, 3202, 3200, 3197, 3190, 3195]
ch2 : [1723, 1737, 1714, 1719, 1717, 1707, 1714, 1724, 1727, 1719]
ch3 : [2771, 2770, 2768, 2771, 2767, 2772, 2779, 2775, 2774, 2774]
ch0 : [2396, 2338, 2310, 2437, 2365, 2213, 2350, 2367, 2457, 2375]
ch1 : [3192, 3194, 3194, 3195, 3192, 3193, 3191, 3192, 3191, 3192]
ch2 : [1722, 1721, 1718, 1710, 1701, 1722, 1726, 1721, 1720, 1717]
ch3 : [2778, 2775, 2780, 2781, 2778, 2783, 2784, 2782, 2784, 2780]
ch0 : [2344, 2462, 2432, 2147, 2318, 2376, 2363, 2368, 2341, 2314]
ch1 : [3193, 3193, 3196, 3195, 3192, 3195, 3196, 3196, 3194, 3195]
ch2 : [1715, 1713, 1689, 1708, 1723, 1718, 1714, 1712, 1716, 1725]
ch3 : [2781, 2779, 2786, 2794, 2790, 2789, 2788, 2786, 2787, 2789]
ch0 : [2462, 2409, 2213, 2341, 2369, 2449, 2370, 2336, 2461, 2444]
ch1 : [3195, 3189, 3197, 3193, 3193, 3195, 3197, 3197, 3192, 3193]
ch2 : [1707, 1693, 1711, 1728, 1713, 1711, 1708, 1708, 1708, 1691]
ch3 : [2783, 2787, 2794, 2793, 2793, 2792, 2788, 2788, 2791, 2794]
ch0 : [2152, 2318, 2369, 2367, 2379, 2338, 2324, 2459, 2399, 2186]
ch1 : [3195, 3193, 3196, 3193, 3194, 3187, 3195, 3190, 3197, 3197]
ch2 : [1696, 1710, 1713, 1708, 1707, 1706, 1708, 1699, 1687, 1706]
ch3 : [2799, 2796, 2787, 2797, 2797, 2800, 2796, 2798, 2794, 2801]
ch0 : [2340, 2369, 2455, 2353, 2349, 2444, 2436, 2135, 2305, 2364]
ch1 : [3187, 3191, 3192, 3194, 3190, 3191, 3194, 3196, 3197, 3200]
ch2 : [1703, 1709, 1706, 1702, 1704, 1713, 1692, 1695, 1706, 1694]
ch3 : [2804, 2805, 2818, 2790, 2799, 2803, 2817, 2820, 2810, 2806]
ch0 : [2382, 2393, 2360, 2339, 2460, 2433, 2157, 2336, 2385, 2470]
ch1 : [3195, 3201, 3196, 3197, 3191, 3196, 3196, 3208, 3187, 3195]
ch2 : [1708, 1703, 1708, 1704, 1695, 1688, 1701, 1708, 1704, 1705]
ch3 : [2808, 2806, 2808, 2809, 2811, 2797, 2806, 2817, 2817, 2812]
ch0 : [2390, 2344, 2370, 2447, 2202, 2304, 2380, 2364, 2391, 2347]
ch1 : [3187, 3203, 3180, 3192, 3183, 3189, 3195, 3191, 3193, 3194]
ch2 : [1701, 1700, 1699, 1683, 1687, 1705, 1702, 1705, 1700, 1700]
ch3 : [2811, 2812, 2811, 2815, 2820, 2819, 2815, 2819, 2818, 2815]
ch0 : [2347, 2469, 2433, 2165, 2341, 2375, 2453, 2378, 2351, 2343]
ch1 : [3196, 3189, 3196, 3196, 3194, 3194, 3200, 3196, 3197, 3197]
ch2 : [1701, 1685, 1686, 1697, 1703, 1701, 1708, 1697, 1696, 1698]
ch3 : [2824, 2819, 2819, 2821, 2826, 2822, 2825, 2821, 2821, 2824]
ch0 : [2453, 2286, 2317, 2362, 2353, 2391, 2355, 2356, 2464, 2427]
ch1 : [3195, 3195, 3180, 3200, 3195, 3194, 3190, 3192, 3196, 3193]
ch2 : [1685, 1690, 1695, 1698, 1697, 1701, 1701, 1700, 1691, 1678]
ch3 : [2815, 2825, 2821, 2826, 2826, 2823, 2821, 2825, 2823, 2825]
ch0 : [2146, 2314, 2367, 2444, 2372, 2332, 2331, 2460, 2285, 2288]
ch1 : [3199, 3194, 3192, 3192, 3196, 3197, 3194, 3191, 3195, 3192]
ch2 : [1678, 1702, 1701, 1696, 1695, 1678, 1695, 1679, 1683, 1684]
ch3 : [2823, 2832, 2829, 2827, 2833, 2825, 2818, 2829, 2829, 2832]
ch0 : [2371, 2375, 2371, 2357, 2352, 2458, 2323, 2134, 2335, 2364]
ch1 : [3195, 3191, 3192, 3195, 3197, 3192, 3194, 3198, 3190, 3196]
ch2 : [1698, 1697, 1690, 1695, 1694, 1701, 1676, 1695, 1696, 1698]
ch3 : [2828, 2831, 2828, 2829, 2827, 2830, 2827, 2830, 2837, 2833]
ch0 : [2436, 2402, 2335, 2336, 2440, 2364, 2288, 2367, 2358, 2383]
ch1 : [3195, 3193, 3192, 3194, 3192, 3193, 3195, 3197, 3196, 3205]
ch2 : [1698, 1691, 1691, 1694, 1679, 1677, 1700, 1695, 1687, 1693]
ch3 : [2834, 2827, 2824, 2828, 2829, 2834, 2834, 2833, 2832, 2831]
ch0 : [2351, 2356, 2474, 2409, 2102, 2313, 2372, 2377, 2402, 2339]
ch1 : [3191, 3193, 3197, 3188, 3197, 3193, 3193, 3193, 3194, 3196]
ch2 : [1687, 1688, 1686, 1669, 1696, 1692, 1687, 1700, 1681, 1687]
ch3 : [2837, 2833, 2834, 2836, 2837, 2838, 2835, 2835, 2830, 2832]
ch0 : [2337, 2461, 2409, 2280, 2370, 2369, 2402, 2376, 2367, 2466]
ch1 : [3196, 3193, 3192, 3193, 3192, 3194, 3195, 3193, 3192, 3192]
ch2 : [1684, 1675, 1671, 1707, 1697, 1690, 1688, 1688, 1689, 1684]
ch3 : [2833, 2835, 2837, 2836, 2836, 2833, 2836, 2834, 2831, 2837]
ch0 : [2373, 2117, 2327, 2371, 2387, 2413, 2336, 2326, 2421, 2436]
ch1 : [3194, 3198, 3194, 3193, 3190, 3189, 3197, 3196, 3191, 3196]
ch2 : [1673, 1683, 1697, 1695, 1688, 1691, 1687, 1686, 1667, 1679]
ch3 : [2835, 2836, 2841, 2837, 2834, 2835, 2831, 2837, 2836, 2835]
ch0 : [2283, 2375, 2355, 2392, 2364, 2350, 2471, 2458, 2096, 2319]
ch1 : [3196, 3192, 3192, 3188, 3191, 3193, 3193, 3192, 3196, 3195]
ch2 : [1695, 1695, 1691, 1690, 1703, 1692, 1690, 1667, 1683, 1694]
ch3 : [2840, 2838, 2839, 2836, 2835, 2837, 2840, 2836, 2838, 2842]
ch0 : [2359, 2378, 2391, 2365, 2327, 2465, 2360, 2273, 2357, 2372]
ch1 : [3191, 3193, 3193, 3191, 3192, 3186, 3187, 3198, 3187, 3195]
ch2 : [1701, 1692, 1694, 1690, 1695, 1678, 1678, 1691, 1680, 1694]
ch3 : [2845, 2837, 2837, 2832, 2838, 2838, 2841, 2843, 2843, 2835]
ch0 : [2401, 2376, 2351, 2463, 2447, 2079, 2303, 2367, 2385, 2416]
ch1 : [3198, 3193, 3194, 3193, 3191, 3198, 3191, 3192, 3197, 3191]
ch2 : [1691, 1689, 1685, 1691, 1676, 1684, 1697, 1690, 1691, 1696]
ch3 : [2840, 2838, 2835, 2839, 2839, 2841, 2843, 2842, 2843, 2839]
ch0 : [2350, 2343, 2439, 2395, 2258, 2362, 2376, 2408, 2370, 2349]
ch1 : [3191, 3198, 3193, 3189, 3194, 3197, 3195, 3192, 3190, 3196]
ch2 : [1691, 1690, 1676, 1677, 1692, 1694, 1688, 1691, 1688, 1691]
ch3 : [2841, 2840, 2842, 2844, 2847, 2837, 2841, 2839, 2835, 2841]
ch0 : [2391, 2244, 2350, 2366, 2383, 2368, 2315, 2365, 2448, 2025]
ch1 : [3185, 3194, 3192, 3194, 3193, 3200, 3191, 3193, 3193, 3198]
ch2 : [1677, 1692, 1697, 1696, 1693, 1693, 1696, 1692, 1677, 1683]
ch3 : [2843, 2845, 2842, 2843, 2841, 2840, 2844, 2843, 2841, 2848]
ch0 : [2279, 2356, 2379, 2411, 2339, 2354, 2462, 2442, 2233, 2363]
ch1 : [3192, 3191, 3192, 3189, 3197, 3202, 3196, 3196, 3181, 3195]
ch2 : [1691, 1698, 1695, 1691, 1687, 1697, 1684, 1681, 1697, 1699]
ch3 : [2847, 2846, 2845, 2841, 2840, 2841, 2846, 2850, 2845, 2847]
ch0 : [2369, 2396, 2372, 2315, 2315, 2393, 2054, 2274, 2365, 2380]
ch1 : [3188, 3191, 3192, 3195, 3191, 3194, 3198, 3197, 3196, 3192]
ch2 : [1695, 1694, 1699, 1696, 1692, 1675, 1680, 1693, 1698, 1694]
ch3 : [2843, 2845, 2842, 2847, 2846, 2841, 2843, 2848, 2851, 2835]
ch0 : [2408, 2345, 2359, 2467, 2422, 2222, 2342, 2366, 2390, 2371]
ch1 : [3194, 3195, 3200, 3194, 3190, 3197, 3193, 3200, 3193, 3195]
ch2 : [1693, 1683, 1695, 1686, 1678, 1690, 1701, 1696, 1699, 1696]
ch3 : [2844, 2843, 2844, 2844, 2852, 2847, 2849, 2849, 2846, 2843]
ch0 : [2312, 2299, 2418, 2080, 2270, 2353, 2371, 2408, 2336, 2356]
ch1 : [3196, 3192, 3200, 3197, 3195, 3196, 3194, 3195, 3193, 3193]
ch2 : [1700, 1700, 1674, 1682, 1698, 1697, 1695, 1704, 1693, 1696]
ch3 : [2847, 2849, 2847, 2847, 2852, 2851, 2852, 2843, 2845, 2848]
ch0 : [2452, 2405, 2213, 2344, 2362, 2386, 2373, 2321, 2300, 2458]
ch1 : [3191, 3193, 3196, 3192, 3195, 3193, 3196, 3193, 3193, 3195]
ch2 : [1687, 1679, 1691, 1703, 1698, 1696, 1691, 1698, 1686, 1684]
ch3 : [2843, 2850, 2852, 2856, 2851, 2848, 2852, 2847, 2846, 2849]
ch0 : [2150, 2259, 2360, 2359, 2411, 2340, 2358, 2459, 2408, 2204]
ch1 : [3197, 3192, 3197, 3192, 3187, 3196, 3192, 3194, 3185, 3198]
ch2 : [1680, 1699, 1699, 1698, 1696, 1694, 1700, 1688, 1681, 1691]
ch3 : [2845, 2850, 2851, 2851, 2846, 2845, 2848, 2854, 2851, 2852]
ch0 : [2348, 2364, 2397, 2391, 2356, 2313, 2457, 2207, 2253, 2351]
ch1 : [3195, 3188, 3198, 3191, 3192, 3187, 3191, 3190, 3192, 3187]
ch2 : [1699, 1699, 1696, 1696, 1693, 1694, 1684, 1677, 1698, 1684]
ch3 : [2861, 2853, 2845, 2846, 2850, 2852, 2848, 2847, 2853, 2857]
ch0 : [2386, 2419, 2374, 2354, 2462, 2395, 2195, 2354, 2379, 2385]
ch1 : [3196, 3190, 3190, 3194, 3190, 3188, 3199, 3195, 3193, 3196]
ch2 : [1696, 1692, 1694, 1694, 1683, 1675, 1686, 1696, 1697, 1696]
ch3 : [2852, 2849, 2842, 2846, 2848, 2851, 2853, 2852, 2850, 2853]
ch0 : [2389, 2356, 2308, 2449, 2250, 2257, 2365, 2374, 2449, 2359]
ch1 : [3196, 3191, 3189, 3193, 3194, 3196, 3197, 3197, 3193, 3193]
ch2 : [1694, 1695, 1686, 1674, 1676, 1697, 1698, 1696, 1694, 1687]
ch3 : [2851, 2852, 2852, 2848, 2851, 2855, 2856, 2852, 2850, 2848]
ch0 : [2367, 2471, 2442, 2198, 2345, 2368, 2390, 2394, 2358, 2311]
ch1 : [3187, 3188, 3197, 3201, 3192, 3195, 3190, 3195, 3197, 3195]
ch2 : [1690, 1685, 1682, 1696, 1698, 1697, 1701, 1694, 1691, 1692]
ch3 : [2849, 2849, 2860, 2847, 2857, 2850, 2854, 2849, 2852, 2851]
ch0 : [2465, 2312, 2240, 2363, 2383, 2431, 2359, 2368, 2463, 2421]
ch1 : [3194, 3196, 3191, 3192, 3199, 3192, 3205, 3196, 3193, 3190]
ch2 : [1683, 1676, 1700, 1702, 1694, 1692, 1693, 1694, 1690, 1676]
ch3 : [2850, 2852, 2854, 2855, 2855, 2851, 2850, 2853, 2847, 2853]
ch0 : [2191, 2347, 2384, 2360, 2383, 2350, 2304, 2449, 2386, 2235]
ch1 : [3194, 3197, 3195, 3194, 3191, 3193, 3194, 3193, 3196, 3194]
ch2 : [1690, 1698, 1698, 1707, 1678, 1697, 1695, 1681, 1677, 1695]
ch3 : [2860, 2857, 2855, 2854, 2851, 2852, 2854, 2852, 2860, 2854]
ch0 : [2356, 2379, 2440, 2377, 2358, 2481, 2399, 2155, 2337, 2382]
ch1 : [3196, 3192, 3198, 3200, 3195, 3194, 3191, 3200, 3190, 3192]
ch2 : [1699, 1700, 1692, 1692, 1694, 1687, 1668, 1686, 1700, 1696]
ch3 : [2855, 2858, 2854, 2851, 2850, 2850, 2855, 2858, 2854, 2865]
ch0 : [2363, 2382, 2353, 2309, 2433, 2357, 2229, 2346, 2378, 2443]
ch1 : [3195, 3194, 3189, 3196, 3196, 3190, 3190, 3192, 3194, 3193]
ch2 : [1694, 1692, 1693, 1693, 1681, 1674, 1696, 1697, 1699, 1693]
ch3 : [2855, 2850, 2854, 2857, 2856, 2852, 2857, 2860, 2858, 2856]
ch0 : [2356, 2369, 2462, 2418, 2149, 2321, 2358, 2363, 2400, 2348]
ch1 : [3194, 3195, 3191, 3192, 3197, 3195, 3193, 3195, 3196, 3195]
ch2 : [1692, 1690, 1692, 1677, 1675, 1699, 1695, 1695, 1693, 1691]
ch3 : [2852, 2847, 2856, 2860, 2860, 2863, 2857, 2854, 2855, 2853]
ch0 : [2327, 2463, 2427, 2202, 2345, 2383, 2459, 2365, 2335, 2460]
ch1 : [3198, 3189, 3194, 3192, 3194, 3194, 3191, 3195, 3193, 3197]
ch2 : [1694, 1679, 1675, 1694, 1700, 1694, 1695, 1692, 1692, 1693]
ch3 : [2855, 2855, 2846, 2861, 2862, 2863, 2856, 2851, 2850, 2862]
ch0 : [2457, 2163, 2329, 2368, 2356, 2381, 2343, 2327, 2464, 2406]
ch1 : [3192, 3194, 3193, 3194, 3196, 3197, 3205, 3194, 3200, 3195]
ch2 : [1679, 1686, 1691, 1702, 1695, 1694, 1695, 1695, 1684, 1679]
ch3 : [2854, 2855, 2860, 2857, 2859, 2856, 2844, 2855, 2859, 2853]
ch0 : [2197, 2344, 2372, 2449, 2374, 2347, 2452, 2441, 2134, 2320]
ch1 : [3196, 3193, 3199, 3192, 3189, 3194, 3191, 3196, 3196, 3194]
ch2 : [1698, 1704, 1697, 1695, 1692, 1695, 1695, 1680, 1689, 1694]
ch3 : [2866, 2860, 2860, 2854, 2856, 2848, 2855, 2858, 2862, 2860]
ch0 : [2360, 2372, 2388, 2361, 2333, 2459, 2436, 2179, 2340, 2376]
ch1 : [3192, 3195, 3196, 3196, 3191, 3190, 3197, 3196, 3196, 3194]
ch2 : [1698, 1696, 1691, 1691, 1693, 1682, 1678, 1701, 1701, 1701]
ch3 : [2860, 2858, 2855, 2859, 2859, 2851, 2861, 2860, 2860, 2863]
ch0 : [2447, 2366, 2340, 2405, 2454, 2152, 2306, 2371, 2362, 2399]
ch1 : [3196, 3198, 3196, 3187, 3195, 3196, 3197, 3192, 3192, 3191]
ch2 : [1695, 1693, 1697, 1692, 1681, 1684, 1696, 1697, 1691, 1699]
ch3 : [2861, 2854, 2844, 2850, 2860, 2865, 2861, 2860, 2858, 2858]
ch0 : [2338, 2343, 2455, 2339, 2179, 2325, 2367, 2454, 2377, 2338]
ch1 : [3196, 3185, 3191, 3193, 3198, 3193, 3190, 3190, 3194, 3194]
ch2 : [1690, 1707, 1689, 1676, 1690, 1700, 1698, 1697, 1695, 1692]
ch3 : [2862, 2863, 2861, 2859, 2858, 2866, 2864, 2861, 2860, 2860]
ch0 : [2388, 2423, 2213, 2311, 2363, 2357, 2373, 2345, 2351, 2466]
ch1 : [3192, 3189, 3196, 3191, 3195, 3193, 3193, 3193, 3193, 3193]
ch2 : [1694, 1677, 1683, 1696, 1698, 1695, 1697, 1691, 1704, 1687]
ch3 : [2865, 2869, 2865, 2867, 2859, 2861, 2861, 2859, 2860, 2861]
ch0 : [2407, 2171, 2331, 2381, 2452, 2369, 2347, 2338, 2457, 2278]
ch1 : [3192, 3196, 3200, 3193, 3193, 3200, 3195, 3192, 3196, 3191]
ch2 : [1674, 1696, 1699, 1682, 1700, 1693, 1695, 1695, 1677, 1685]
ch3 : [2854, 2860, 2863, 2860, 2859, 2861, 2856, 2861, 2864, 2863]
ch0 : [2304, 2357, 2360, 2391, 2351, 2358, 2464, 2421, 2156, 2320]
ch1 : [3194, 3195, 3198, 3187, 3190, 3193, 3198, 3193, 3196, 3192]
ch2 : [1698, 1698, 1697, 1690, 1692, 1695, 1686, 1677, 1691, 1703]
ch3 : [2862, 2863, 2858, 2855, 2859, 2861, 2860, 2857, 2859, 2850]
ch0 : [2375, 2455, 2407, 2337, 2339, 2464, 2290, 2303, 2381, 2363]
ch1 : [3189, 3195, 3193, 3196, 3199, 3193, 3197, 3193, 3191, 3192]
ch2 : [1696, 1695, 1694, 1692, 1694, 1680, 1680, 1695, 1698, 1690]
ch3 : [2860, 2861, 2860, 2860, 2861, 2859, 2864, 2863, 2860, 2862]
ch0 : [2394, 2349, 2357, 2461, 2392, 2132, 2329, 2366, 2444, 2397]
ch1 : [3189, 3195, 3191, 3193, 3182, 3195, 3198, 3197, 3191, 3191]
ch2 : [1694, 1690, 1697, 1686, 1679, 1691, 1699, 1697, 1692, 1697]
ch3 : [2863, 2856, 2861, 2864, 2859, 2865, 2865, 2862, 2864, 2859]
ch0 : [2352, 2327, 2462, 2379, 2289, 2367, 2364, 2398, 2352, 2368]
ch1 : [3187, 3191, 3179, 3192, 3197, 3185, 3200, 3193, 3197, 3193]
ch2 : [1700, 1692, 1680, 1679, 1695, 1697, 1697, 1696, 1707, 1694]
ch3 : [2859, 2864, 2862, 2864, 2862, 2858, 2862, 2862, 2858, 2863]
ch0 : [2463, 2404, 2115, 2319, 2372, 2403, 2393, 2349, 2340, 2465]
ch1 : [3196, 3190, 3197, 3193, 3196, 3194, 3195, 3191, 3200, 3191]
ch2 : [1692, 1676, 1694, 1698, 1697, 1701, 1690, 1692, 1683, 1679]
ch3 : [2862, 2861, 2861, 2862, 2854, 2863, 2862, 2860, 2861, 2867]
ch0 : [2373, 2297, 2362, 2375, 2390, 2359, 2361, 2463, 2435, 2103]
ch1 : [3192, 3197, 3198, 3194, 3191, 3194, 3196, 3193, 3194, 3191]
ch2 : [1678, 1694, 1699, 1699, 1697, 1692, 1693, 1690, 1677, 1692]
ch3 : [2864, 2863, 2862, 2861, 2861, 2861, 2862, 2863, 2858, 2861]
ch0 : [2368, 2401, 2365, 2367, 2461, 2459, 2082, 2303, 2371, 2388]
ch1 : [3192, 3193, 3189, 3195, 3194, 3190, 3199, 3190, 3190, 3194]
ch2 : [1692, 1697, 1693, 1692, 1690, 1685, 1688, 1699, 1696, 1695]
ch3 : [2857, 2860, 2862, 2860, 2860, 2862, 2861, 2868, 2864, 2865]
ch0 : [2405, 2331, 2323, 2461, 2410, 2267, 2354, 2374, 2399, 2378]
ch1 : [3191, 3190, 3204, 3193, 3191, 3195, 3192, 3197, 3196, 3195]
ch2 : [1691, 1691, 1693, 1684, 1676, 1694, 1702, 1696, 1694, 1696]
ch3 : [2858, 2859, 2860, 2861, 2869, 2863, 2866, 2864, 2863, 2863]
ch0 : [2349, 2459, 2380, 2083, 2302, 2370, 2385, 2410, 2350, 2339]
ch1 : [3194, 3194, 3190, 3197, 3187, 3193, 3193, 3194, 3194, 3191]
ch2 : [1692, 1690, 1677, 1689, 1698, 1691, 1692, 1692, 1690, 1694]
ch3 : [2863, 2863, 2861, 2859, 2860, 2868, 2866, 2861, 2860, 2859]
ch0 : [2465, 2392, 2264, 2372, 2357, 2396, 2363, 2348, 2461, 2410]
ch1 : [3188, 3196, 3195, 3193, 3193, 3194, 3191, 3193, 3196, 3200]
ch2 : [1682, 1685, 1690, 1701, 1700, 1690, 1697, 1694, 1694, 1678]
ch3 : [2864, 2859, 2869, 2863, 2862, 2863, 2862, 2865, 2862, 2861]
ch0 : [2061, 2312, 2373, 2387, 2416, 2339, 2344, 2462, 2402, 2246]
ch1 : [3199, 3197, 3190, 3200, 3192, 3194, 3196, 3187, 3195, 3197]
ch2 : [1683, 1696, 1713, 1701, 1691, 1691, 1691, 1682, 1680, 1705]
ch3 : [2863, 2865, 2864, 2865, 2862, 2858, 2860, 2865, 2865, 2868]
ch0 : [2361, 2367, 2400, 2373, 2345, 2375, 2411, 2051, 2294, 2350]
ch1 : [3191, 3189, 3189, 3195, 3194, 3194, 3191, 3197, 3200, 3197]
ch2 : [1686, 1697, 1695, 1687, 1692, 1700, 1684, 1681, 1699, 1700]
ch3 : [2864, 2864, 2860, 2862, 2868, 2866, 2864, 2864, 2866, 2872]
ch0 : [2388, 2407, 2350, 2352, 2464, 2391, 2243, 2332, 2373, 2391]
ch1 : [3193, 3193, 3192, 3190, 3200, 3196, 3196, 3197, 3193, 3192]
ch2 : [1696, 1681, 1690, 1694, 1675, 1678, 1685, 1698, 1692, 1689]
ch3 : [2864, 2869, 2861, 2863, 2863, 2868, 2867, 2874, 2863, 2864]
ch0 : [2380, 2313, 2326, 2457, 2045, 2283, 2370, 2378, 2423, 2347]
ch1 : [3194, 3195, 3195, 3192, 3196, 3195, 3187, 3196, 3193, 3197]
ch2 : [1692, 1675, 1697, 1677, 1686, 1695, 1697, 1695, 1690, 1688]
ch3 : [2863, 2868, 2864, 2855, 2848, 2866, 2855, 2866, 2862, 2860]
ch0 : [2351, 2465, 2405, 2239, 2347, 2363, 2400, 2382, 2314, 2306]
ch1 : [3194, 3191, 3187, 3197, 3194, 3190, 3187, 3195, 3198, 3197]
ch2 : [1694, 1682, 1677, 1691, 1695, 1695, 1692, 1694, 1694, 1691]
ch3 : [2865, 2863, 2868, 2872, 2859, 2864, 2869, 2861, 2855, 2863]
ch0 : [2452, 2057, 2285, 2346, 2378, 2420, 2345, 2366, 2462, 2460]
ch1 : [3198, 3195, 3193, 3195, 3194, 3191, 3192, 3192, 3196, 3190]
ch2 : [1678, 1684, 1691, 1696, 1699, 1693, 1689, 1692, 1684, 1670]
ch3 : [2874, 2865, 2867, 2863, 2870, 2862, 2860, 2865, 2861, 2868]
ch0 : [2211, 2360, 2366, 2387, 2373, 2337, 2311, 2402, 2134, 2277]
ch1 : [3194, 3196, 3190, 3190, 3192, 3193, 3196, 3193, 3200, 3193]
ch2 : [1696, 1701, 1696, 1695, 1691, 1689, 1692, 1676, 1680, 1696]
ch3 : [2870, 2863, 2868, 2865, 2866, 2859, 2864, 2863, 2862, 2866]
ch0 : [2354, 2394, 2419, 2350, 2365, 2461, 2396, 2222, 2346, 2370]
ch1 : [3192, 3194, 3194, 3193, 3193, 3190, 3194, 3190, 3181, 3192]
ch2 : [1695, 1696, 1693, 1691, 1692, 1678, 1679, 1688, 1698, 1693]
ch3 : [2868, 2866, 2862, 2864, 2863, 2866, 2865, 2872, 2865, 2868]
ch0 : [2394, 2380, 2321, 2311, 2468, 2166, 2257, 2359, 2376, 2431]
ch1 : [3200, 3190, 3193, 3198, 3193, 3192, 3192, 3194, 3193, 3185]
ch2 : [1699, 1678, 1694, 1693, 1679, 1672, 1695, 1700, 1695, 1692]
ch3 : [2872, 2863, 2853, 2868, 2865, 2860, 2852, 2867, 2866, 2865]
ch0 : [2342, 2360, 2463, 2402, 2224, 2347, 2372, 2387, 2378, 2333]
ch1 : [3196, 3185, 3191, 3192, 3193, 3194, 3195, 3196, 3190, 3188]
ch2 : [1692, 1693, 1669, 1680, 1691, 1692, 1698, 1695, 1693, 1695]
ch3 : [2861, 2862, 2865, 2866, 2865, 2864, 2867, 2867, 2861, 2865]
ch0 : [2305, 2407, 2239, 2249, 2355, 2379, 2416, 2356, 2371, 2465]
ch1 : [3193, 3191, 3191, 3196, 3196, 3193, 3188, 3192, 3190, 3193]
ch2 : [1698, 1679, 1683, 1700, 1699, 1696, 1698, 1680, 1692, 1688]
ch3 : [2866, 2868, 2863, 2867, 2869, 2869, 2863, 2866, 2872, 2865]
ch0 : [2369, 2177, 2345, 2379, 2402, 2394, 2352, 2298, 2460, 2330]
ch1 : [3193, 3199, 3192, 3193, 3194, 3202, 3195, 3183, 3196, 3196]
ch2 : [1679, 1689, 1704, 1695, 1700, 1698, 1690, 1692, 1678, 1675]
ch3 : [2867, 2865, 2858, 2865, 2870, 2859, 2866, 2870, 2866, 2865]
ch0 : [2242, 2360, 2380, 2429, 2369, 2352, 2466, 2441, 2177, 2346]
ch1 : [3189, 3196, 3193, 3188, 3190, 3192, 3190, 3197, 3194, 3195]
ch2 : [1700, 1701, 1682, 1693, 1695, 1692, 1689, 1665, 1687, 1699]
ch3 : [2869, 2868, 2869, 2863, 2862, 2876, 2863, 2867, 2869, 2868]
ch0 : [2372, 2377, 2380, 2346, 2302, 2455, 2311, 2233, 2348, 2377]
ch1 : [3202, 3196, 3194, 3191, 3190, 3195, 3197, 3191, 3190, 3196]
ch2 : [1700, 1696, 1695, 1685, 1694, 1680, 1676, 1698, 1696, 1695]
ch3 : [2867, 2868, 2867, 2868, 2869, 2865, 2865, 2881, 2872, 2869]
ch0 : [2428, 2371, 2355, 2454, 2443, 2170, 2340, 2368, 2360, 2398]
ch1 : [3193, 3193, 3193, 3193, 3196, 3195, 3198, 3190, 3192, 3197]
ch2 : [1694, 1691, 1697, 1686, 1679, 1687, 1698, 1696, 1690, 1694]
ch3 : [2866, 2862, 2867, 2867, 2869, 2872, 2868, 2865, 2860, 2866]
ch0 : [2340, 2304, 2457, 2313, 2235, 2354, 2373, 2437, 2369, 2361]
ch1 : [3198, 3195, 3193, 3197, 3190, 3192, 3195, 3195, 3191, 3190]
ch2 : [1693, 1696, 1682, 1675, 1695, 1695, 1696, 1688, 1697, 1692]
ch3 : [2868, 2877, 2867, 2863, 2868, 2873, 2869, 2868, 2873, 2862]
ch0 : [2414, 2210, 2340, 2380, 2454, 2371, 2348, 2464, 2398, 2137]
ch1 : [3192, 3196, 3197, 3193, 3192, 3196, 3197, 3196, 3197, 3196]
ch2 : [1675, 1695, 1699, 1696, 1687, 1691, 1693, 1694, 1681, 1685]
ch3 : [2867, 2874, 2870, 2867, 2866, 2868, 2865, 2866, 2876, 2871]
ch0 : [2330, 2371, 2362, 2383, 2365, 2308, 2461, 2391, 2197, 2333]
ch1 : [3195, 3192, 3192, 3196, 3193, 3197, 3192, 3192, 3196, 3195]
ch2 : [1700, 1696, 1693, 1695, 1693, 1706, 1681, 1666, 1693, 1699]
ch3 : [2873, 2868, 2870, 2869, 2866, 2868, 2866, 2868, 2869, 2871]
ch0 : [2384, 2455, 2378, 2337, 2451, 2429, 2139, 2329, 2366, 2360]
ch1 : [3192, 3194, 3192, 3194, 3194, 3192, 3195, 3193, 3187, 3192]
ch2 : [1694, 1695, 1691, 1694, 1696, 1678, 1685, 1694, 1696, 1700]
ch3 : [2870, 2870, 2864, 2867, 2867, 2868, 2871, 2877, 2869, 2863]
ch0 : [2390, 2338, 2330, 2467, 2336, 2190, 2360, 2376, 2455, 2374]
ch1 : [3192, 3198, 3192, 3191, 3201, 3197, 3197, 3195, 3196, 3194]
ch2 : [1691, 1697, 1692, 1687, 1681, 1694, 1698, 1698, 1698, 1690]
ch3 : [2865, 2867, 2873, 2868, 2868, 2868, 2859, 2870, 2867, 2866]
ch0 : [2343, 2427, 2450, 2139, 2317, 2369, 2358, 2384, 2339, 2334]
ch1 : [3192, 3191, 3186, 3195, 3195, 3192, 3190, 3192, 3193, 3197]
ch2 : [1694, 1696, 1683, 1682, 1692, 1693, 1701, 1692, 1694, 1696]
ch3 : [2869, 2872, 2872, 2876, 2871, 2865, 2867, 2868, 2874, 2858]
ch0 : [2465, 2392, 2158, 2337, 2380, 2457, 2376, 2336, 2370, 2447]
ch1 : [3193, 3195, 3196, 3190, 3195, 3195, 3196, 3193, 3192, 3192]
ch2 : [1685, 1673, 1700, 1698, 1698, 1694, 1694, 1693, 1693, 1679]
ch3 : [2866, 2870, 2867, 2860, 2858, 2866, 2868, 2857, 2854, 2861]
ch0 : [2166, 2308, 2373, 2367, 2373, 2346, 2327, 2456, 2390, 2159]
ch1 : [3192, 3194, 3195, 3188, 3200, 3192, 3193, 3192, 3194, 3194]
ch2 : [1683, 1700, 1680, 1695, 1695, 1689, 1691, 1683, 1667, 1688]
ch3 : [2862, 2856, 2847, 2852, 2851, 2866, 2864, 2857, 2850, 2850]
ch0 : [2328, 2354, 2451, 2390, 2337, 2342, 2433, 2254, 2297, 2380]
ch1 : [3195, 3191, 3188, 3194, 3193, 3193, 3196, 3189, 3193, 3192]
ch2 : [1692, 1691, 1686, 1685, 1701, 1680, 1672, 1671, 1683, 1685]
ch3 : [2853, 2844, 2857, 2850, 2849, 2845, 2851, 2861, 2856, 2851]
ch0 : [2369, 2385, 2341, 2346, 2455, 2378, 2128, 2325, 2363, 2446]
ch1 : [3196, 3193, 3187, 3195, 3188, 3195, 3200, 3191, 3196, 3192]
ch2 : [1678, 1682, 1677, 1676, 1675, 1659, 1671, 1678, 1680, 1674]
ch3 : [2854, 2848, 2846, 2843, 2838, 2837, 2852, 2855, 2852, 2850]
ch0 : [2385, 2337, 2331, 2461, 2325, 2296, 2354, 2362, 2369, 2356]
ch1 : [3193, 3196, 3204, 3194, 3194, 3183, 3195, 3200, 3191, 3197]
ch2 : [1678, 1689, 1676, 1662, 1660, 1681, 1684, 1683, 1680, 1684]
ch3 : [2839, 2839, 2845, 2847, 2844, 2842, 2833, 2838, 2851, 2854]
ch0 : [2430, 2318, 2287, 2370, 2355, 2375, 2364, 2358, 2459, 2408]
ch1 : [3191, 3196, 3192, 3195, 3195, 3192, 3193, 3196, 3196, 3191]
ch2 : [1673, 1675, 1691, 1696, 1691, 1692, 1690, 1692, 1687, 1670]
ch3 : [2844, 2838, 2841, 2847, 2840, 2840, 2835, 2844, 2851, 2839]
ch0 : [2104, 2325, 2367, 2398, 2409, 2349, 2315, 2457, 2404, 2286]
ch1 : [3191, 3194, 3193, 3196, 3189, 3192, 3195, 3200, 3188, 3192]
ch2 : [1689, 1698, 1701, 1700, 1700, 1695, 1697, 1686, 1684, 1702]
ch3 : [2842, 2840, 2832, 2841, 2842, 2836, 2832, 2827, 2830, 2827]
ch0 : [2354, 2349, 2379, 2357, 2356, 2457, 2413, 2101, 2303, 2352]
ch1 : [3191, 3192, 3184, 3192, 3192, 3193, 3191, 3194, 3192, 3197]
ch2 : [1706, 1699, 1696, 1695, 1704, 1699, 1688, 1695, 1706, 1703]
ch3 : [2819, 2824, 2816, 2816, 2810, 2808, 2810, 2812, 2820, 2812]
ch0 : [2364, 2411, 2331, 2336, 2448, 2371, 2257, 2367, 2346, 2398]
ch1 : [3193, 3193, 3179, 3195, 3192, 3190, 3196, 3187, 3198, 3192]
ch2 : [1701, 1700, 1700, 1703, 1695, 1690, 1711, 1708, 1709, 1701]
ch3 : [2803, 2809, 2808, 2802, 2798, 2800, 2808, 2800, 2799, 2809]
ch0 : [2352, 2361, 2459, 2440, 2082, 2325, 2365, 2375, 2405, 2344]
ch1 : [3192, 3192, 3193, 3193, 3201, 3193, 3193, 3196, 3192, 3191]
ch2 : [1699, 1704, 1703, 1689, 1706, 1714, 1706, 1704, 1712, 1703]
ch3 : [2802, 2799, 2793, 2786, 2789, 2794, 2790, 2792, 2783, 2783]
ch0 : [2325, 2459, 2406, 2257, 2349, 2363, 2393, 2380, 2342, 2451]
ch1 : [3198, 3192, 3190, 3195, 3193, 3196, 3191, 3191, 3193, 3188]
ch2 : [1707, 1696, 1695, 1707, 1709, 1704, 1711, 1701, 1706, 1709]
ch3 : [2781, 2782, 2784, 2780, 2776, 2774, 2773, 2769, 2774, 2756]
ch0 : [2458, 2059, 2291, 2352, 2374, 2395, 2354, 2318, 2468, 2380]
ch1 : [3191, 3197, 3194, 3192, 3195, 3190, 3200, 3194, 3193, 3192]
ch2 : [1690, 1695, 1716, 1709, 1709, 1704, 1707, 1703, 1692, 1685]
ch3 : [2761, 2768, 2762, 2758, 2759, 2754, 2751, 2751, 2739, 2750]
ch0 : [2267, 2357, 2361, 2384, 2364, 2334, 2449, 2426, 2052, 2283]
ch1 : [3196, 3182, 3191, 3195, 3182, 3194, 3196, 3200, 3195, 3194]
ch2 : [1711, 1708, 1712, 1706, 1709, 1708, 1706, 1690, 1698, 1712]
ch3 : [2748, 2739, 2743, 2744, 2739, 2741, 2740, 2735, 2732, 2725]
ch0 : [2379, 2369, 2398, 2337, 2322, 2453, 2423, 2231, 2343, 2365]
ch1 : [3194, 3194, 3194, 3193, 3194, 3196, 3191, 3197, 3190, 3191]
ch2 : [1709, 1706, 1708, 1707, 1701, 1694, 1689, 1705, 1710, 1708]
ch3 : [2724, 2736, 2726, 2723, 2729, 2727, 2729, 2728, 2727, 2721]
ch0 : [2381, 2375, 2337, 2376, 2420, 2051, 2285, 2352, 2367, 2406]
ch1 : [3186, 3189, 3194, 3193, 3201, 3206, 3196, 3193, 3193, 3196]
ch2 : [1711, 1707, 1706, 1706, 1694, 1698, 1714, 1716, 1710, 1710]
ch3 : [2723, 2723, 2723, 2725, 2719, 2715, 2724, 2727, 2726, 2724]
ch0 : [2320, 2454, 2040, 2297, 2367, 2379, 2422, 2354, 2350, 2461]
ch1 : [3195, 3194, 3195, 3195, 3200, 3188, 3191, 3195, 3196, 3191]
ch2 : [1716, 1699, 1706, 1720, 1722, 1720, 1716, 1716, 1717, 1709]
ch3 : [2727, 2726, 2726, 2732, 2733, 2732, 2733, 2727, 2730, 2723]
ch0 : [2396, 2225, 2358, 2365, 2407, 2387, 2316, 2315, 2436, 2062]
ch1 : [3191, 3198, 3197, 3189, 3191, 3196, 3190, 3196, 3195, 3196]
ch2 : [1697, 1713, 1718, 1714, 1718, 1720, 1714, 1719, 1699, 1701]
ch3 : [2738, 2739, 2738, 2742, 2737, 2748, 2740, 2742, 2742, 2742]
ch0 : [2270, 2349, 2369, 2411, 2335, 2350, 2459, 2420, 2208, 2348]
ch1 : [3192, 3192, 3195, 3180, 3193, 3194, 3193, 3193, 3192, 3199]
ch2 : [1716, 1717, 1717, 1715, 1712, 1707, 1702, 1697, 1710, 1715]
ch3 : [2743, 2752, 2750, 2746, 2742, 2748, 2752, 2755, 2760, 2756]
ch0 : [2370, 2392, 2384, 2321, 2306, 2381, 2153, 2259, 2349, 2372]
ch1 : [3199, 3194, 3190, 3193, 3194, 3193, 3198, 3193, 3192, 3197]
ch2 : [1711, 1711, 1706, 1712, 1707, 1695, 1691, 1710, 1708, 1708]
ch3 : [2754, 2750, 2756, 2756, 2759, 2758, 2758, 2763, 2762, 2750]
ch0 : [2420, 2334, 2356, 2455, 2407, 2209, 2334, 2368, 2385, 2375]
ch1 : [3193, 3193, 3191, 3188, 3191, 3195, 3192, 3194, 3193, 3196]
ch2 : [1708, 1703, 1705, 1696, 1687, 1705, 1707, 1707, 1706, 1703]
ch3 : [2759, 2760, 2762, 2764, 2769, 2771, 2769, 2769, 2766, 2770]
ch0 : [2336, 2298, 2445, 2180, 2264, 2353, 2391, 2420, 2328, 2353]
ch1 : [3195, 3193, 3190, 3196, 3193, 3195, 3194, 3197, 3194, 3196]
ch2 : [1706, 1709, 1692, 1689, 1720, 1708, 1706, 1709, 1703, 1704]
ch3 : [2772, 2778, 2771, 2775, 2778, 2781, 2777, 2777, 2777, 2780]
ch0 : [2453, 2408, 2184, 2339, 2368, 2373, 2367, 2350, 2297, 2460]
ch1 : [3194, 3187, 3195, 3191, 3195, 3192, 3192, 3197, 3193, 3191]
ch2 : [1697, 1704, 1701, 1709, 1709, 1705, 1711, 1703, 1704, 1692]
ch3 : [2780, 2786, 2785, 2784, 2785, 2783, 2782, 2785, 2786, 2789]
ch0 : [2285, 2238, 2340, 2375, 2428, 2350, 2353, 2460, 2393, 2170]
ch1 : [3193, 3193, 3205, 3196, 3191, 3195, 3193, 3197, 3193, 3195]
ch2 : [1688, 1706, 1707, 1701, 1696, 1702, 1702, 1698, 1688, 1705]
ch3 : [2789, 2795, 2792, 2793, 2789, 2786, 2779, 2790, 2795, 2798]
ch0 : [2332, 2359, 2382, 2383, 2337, 2294, 2443, 2341, 2231, 2347]
ch1 : [3194, 3196, 3190, 3193, 3196, 3188, 3193, 3196, 3205, 3196]
ch2 : [1695, 1707, 1706, 1705, 1701, 1705, 1674, 1683, 1703, 1707]
ch3 : [2801, 2794, 2791, 2794, 2794, 2795, 2797, 2805, 2799, 2802]
ch0 : [2368, 2435, 2364, 2344, 2472, 2441, 2160, 2324, 2362, 2356]
ch1 : [3193, 3197, 3190, 3192, 3192, 3198, 3194, 3197, 3193, 3195]
ch2 : [1703, 1700, 1700, 1698, 1696, 1692, 1704, 1710, 1707, 1703]
ch3 : [2802, 2798, 2790, 2798, 2789, 2802, 2804, 2802, 2804, 2807]
ch0 : [2397, 2354, 2303, 2421, 2355, 2230, 2354, 2383, 2443, 2335]
ch1 : [3197, 3194, 3191, 3196, 3196, 3200, 3192, 3177, 3190, 3195]
ch2 : [1701, 1701, 1704, 1687, 1682, 1703, 1692, 1698, 1694, 1698]
ch3 : [2806, 2804, 2803, 2806, 2806, 2808, 2807, 2806, 2805, 2805]
ch0 : [2342, 2461, 2419, 2151, 2332, 2373, 2358, 2379, 2338, 2300]
ch1 : [3206, 3191, 3192, 3193, 3199, 3193, 3190, 3195, 3194, 3195]
ch2 : [1701, 1699, 1680, 1691, 1702, 1701, 1704, 1698, 1696, 1699]
ch3 : [2802, 2806, 2812, 2811, 2811, 2810, 2810, 2811, 2812, 2813]
ch0 : [2453, 2335, 2215, 2348, 2371, 2442, 2366, 2345, 2459, 2438]
ch1 : [3193, 3193, 3196, 3193, 3194, 3192, 3192, 3193, 3187, 3193]
ch2 : [1701, 1677, 1697, 1701, 1684, 1692, 1692, 1692, 1700, 1681]
ch3 : [2804, 2810, 2809, 2813, 2815, 2808, 2808, 2811, 2812, 2813]
ch0 : [2155, 2330, 2359, 2359, 2380, 2347, 2334, 2456, 2360, 2184]
ch1 : [3197, 3195, 3192, 3191, 3193, 3200, 3197, 3191, 3195, 3197]
ch2 : [1686, 1698, 1694, 1699, 1701, 1703, 1696, 1677, 1675, 1697]
ch3 : [2815, 2814, 2812, 2815, 2813, 2813, 2814, 2809, 2812, 2829]
ch0 : [2339, 2376, 2436, 2389, 2336, 2455, 2443, 2139, 2319, 2376]
ch1 : [3193, 3196, 3187, 3191, 3194, 3201, 3192, 3194, 3199, 3191]
ch2 : [1701, 1695, 1695, 1695, 1707, 1694, 1683, 1684, 1698, 1698]
ch3 : [2820, 2819, 2813, 2811, 2814, 2812, 2807, 2820, 2824, 2817]
ch0 : [2359, 2382, 2348, 2327, 2461, 2384, 2205, 2360, 2377, 2458]
ch1 : [3185, 3191, 3195, 3193, 3197, 3194, 3196, 3190, 3183, 3193]
ch2 : [1695, 1694, 1695, 1696, 1686, 1676, 1695, 1700, 1701, 1696]
ch3 : [2818, 2824, 2816, 2821, 2803, 2811, 2827, 2820, 2822, 2820]
ch0 : [2380, 2358, 2433, 2436, 2143, 2318, 2380, 2378, 2380, 2352]
ch1 : [3190, 3195, 3193, 3200, 3192, 3193, 3191, 3195, 3193, 3196]
ch2 : [1692, 1698, 1694, 1682, 1685, 1696, 1699, 1696, 1690, 1694]
ch3 : [2811, 2819, 2816, 2819, 2807, 2826, 2819, 2821, 2824, 2825]
ch0 : [2321, 2461, 2403, 2188, 2340, 2385, 2455, 2379, 2332, 2399]
ch1 : [3193, 3197, 3196, 3200, 3200, 3193, 3192, 3193, 3197, 3187]
