device found = /dev/cu.usbmodem14433
ch0 : [2510, 2484, 2584, 2512, 2389, 2515, 2550, 2576, 2553, 2527]
ch1 : [3191, 3196, 3196, 3191, 3191, 3190, 3190, 3192, 3190, 3194]
ch2 : [1548, 1551, 1536, 1533, 1552, 1551, 1552, 1545, 1547, 1545]
ch3 : [2834, 2835, 2836, 2830, 2834, 2835, 2836, 2833, 2832, 2832]
ch0 : [2580, 2580, 2321, 2496, 2544, 2523, 2547, 2529, 2480, 2583]
ch1 : [3192, 3194, 3195, 3194, 3191, 3192, 3187, 3192, 3191, 3192]
ch2 : [1545, 1537, 1535, 1547, 1549, 1544, 1557, 1544, 1544, 1530]
ch3 : [2834, 2835, 2832, 2836, 2835, 2836, 2838, 2834, 2835, 2832]
ch0 : [2554, 2434, 2576, 2525, 2579, 2564, 2525, 2583, 2573, 2343]
ch1 : [3198, 3192, 3191, 3192, 3191, 3192, 3189, 3190, 3189, 3194]
ch2 : [1524, 1541, 1547, 1543, 1544, 1540, 1541, 1541, 1528, 1532]
ch3 : [2835, 2836, 2835, 2836, 2837, 2821, 2839, 2838, 2822, 2838]
ch0 : [2478, 2560, 2533, 2554, 2545, 2514, 2585, 2540, 2365, 2526]
ch1 : [3192, 3192, 3196, 3195, 3191, 3195, 3194, 3195, 3193, 3192]
ch2 : [1544, 1546, 1548, 1548, 1542, 1546, 1535, 1530, 1544, 1544]
ch3 : [2840, 2840, 2840, 2836, 2845, 2835, 2834, 2835, 2835, 2840]
ch0 : [2550, 2577, 2528, 2517, 2572, 2583, 2351, 2489, 2527, 2535]
ch1 : [3193, 3192, 3194, 3192, 3192, 3194, 3196, 3189, 3191, 3192]
ch2 : [1550, 1546, 1547, 1548, 1548, 1535, 1538, 1550, 1559, 1551]
ch3 : [2840, 2840, 2834, 2835, 2837, 2836, 2839, 2838, 2838, 2837]
ch0 : [2572, 2537, 2502, 2585, 2580, 2327, 2513, 2553, 2576, 2554]
ch1 : [3191, 3189, 3194, 3184, 3196, 3195, 3191, 3192, 3192, 3189]
ch2 : [1552, 1552, 1554, 1549, 1536, 1553, 1558, 1557, 1560, 1569]
ch3 : [2838, 2832, 2836, 2834, 2831, 2836, 2840, 2847, 2836, 2834]
ch0 : [2510, 2534, 2583, 2425, 2475, 2545, 2531, 2569, 2523, 2505]
ch1 : [3187, 3193, 3192, 3191, 3191, 3196, 3191, 3190, 3190, 3200]
ch2 : [1555, 1557, 1545, 1546, 1550, 1560, 1556, 1561, 1556, 1558]
ch3 : [2834, 2835, 2833, 2836, 2837, 2848, 2837, 2834, 2834, 2836]
ch0 : [2583, 2565, 2337, 2493, 2551, 2575, 2550, 2505, 2495, 2586]
ch1 : [3192, 3193, 3192, 3196, 3194, 3193, 3190, 3191, 3194, 3205]
ch2 : [1554, 1541, 1570, 1560, 1561, 1558, 1539, 1556, 1555, 1547]
ch3 : [2836, 2834, 2831, 2840, 2839, 2835, 2834, 2835, 2836, 2824]
ch0 : [2469, 2463, 2530, 2531, 2569, 2526, 2528, 2585, 2522, 2310]
ch1 : [3191, 3189, 3193, 3191, 3192, 3194, 3186, 3191, 3191, 3202]
ch2 : [1546, 1564, 1563, 1559, 1558, 1558, 1558, 1556, 1543, 1553]
ch3 : [2840, 2837, 2842, 2835, 2847, 2837, 2836, 2836, 2832, 2839]
ch0 : [2494, 2544, 2572, 2561, 2517, 2507, 2580, 2490, 2453, 2523]
ch1 : [3191, 3192, 3186, 3194, 3193, 3192, 3191, 3190, 3192, 3193]
ch2 : [1558, 1559, 1556, 1555, 1554, 1556, 1542, 1545, 1560, 1560]
ch3 : [2840, 2836, 2836, 2833, 2832, 2831, 2837, 2838, 2839, 2838]
ch0 : [2560, 2511, 2509, 2584, 2553, 2449, 2525, 2527, 2567, 2527]
ch1 : [3191, 3191, 3192, 3191, 3191, 3193, 3192, 3191, 3195, 3204]
ch2 : [1553, 1557, 1554, 1550, 1540, 1556, 1557, 1555, 1552, 1556]
ch3 : [2830, 2836, 2840, 2837, 2839, 2841, 2840, 2837, 2839, 2835]
ch0 : [2508, 2572, 2536, 2273, 2486, 2543, 2536, 2570, 2519, 2503]
ch1 : [3196, 3194, 3194, 3198, 3205, 3190, 3190, 3191, 3189, 3192]
ch2 : [1552, 1547, 1535, 1545, 1555, 1552, 1550, 1548, 1547, 1549]
ch3 : [2837, 2836, 2834, 2839, 2840, 2839, 2844, 2837, 2835, 2837]
ch0 : [2575, 2545, 2441, 2530, 2535, 2551, 2540, 2507, 2575, 2576]
ch1 : [3194, 3191, 3196, 3187, 3189, 3192, 3191, 3193, 3197, 3191]
ch2 : [1543, 1535, 1550, 1552, 1549, 1549, 1550, 1549, 1553, 1539]
ch3 : [2839, 2841, 2841, 2841, 2842, 2840, 2841, 2839, 2840, 2835]
ch0 : [2246, 2469, 2509, 2535, 2555, 2499, 2506, 2576, 2574, 2406]
ch1 : [3187, 3192, 3179, 3191, 3190, 3187, 3188, 3195, 3190, 3194]
ch2 : [1551, 1552, 1556, 1550, 1552, 1546, 1548, 1537, 1535, 1553]
ch3 : [2841, 2829, 2845, 2840, 2839, 2837, 2839, 2832, 2843, 2843]
ch0 : [2513, 2531, 2541, 2526, 2493, 2569, 2570, 2222, 2453, 2546]
ch1 : [3193, 3191, 3190, 3194, 3193, 3194, 3192, 3190, 3187, 3196]
ch2 : [1552, 1547, 1549, 1551, 1549, 1553, 1535, 1542, 1552, 1553]
ch3 : [2844, 2839, 2835, 2840, 2839, 2841, 2837, 2843, 2832, 2852]
ch0 : [2549, 2567, 2505, 2510, 2577, 2575, 2407, 2535, 2547, 2563]
ch1 : [3192, 3191, 3193, 3193, 3194, 3193, 3194, 3193, 3192, 3192]
ch2 : [1554, 1549, 1548, 1549, 1538, 1529, 1552, 1554, 1551, 1548]
ch3 : [2842, 2841, 2837, 2838, 2839, 2841, 2843, 2841, 2842, 2839]
ch0 : [2527, 2516, 2520, 2550, 2238, 2453, 2538, 2554, 2575, 2524]
ch1 : [3191, 3191, 3193, 3190, 3194, 3194, 3193, 3192, 3194, 3193]
ch2 : [1550, 1550, 1547, 1545, 1540, 1555, 1556, 1553, 1553, 1552]
ch3 : [2833, 2840, 2842, 2839, 2841, 2854, 2844, 2846, 2841, 2840]
ch0 : [2515, 2577, 2570, 2429, 2527, 2548, 2566, 2537, 2511, 2490]
ch1 : [3188, 3193, 3196, 3197, 3191, 3193, 3190, 3194, 3205, 3196]
ch2 : [1551, 1545, 1542, 1556, 1556, 1556, 1557, 1550, 1555, 1555]
ch3 : [2840, 2828, 2842, 2842, 2847, 2840, 2842, 2844, 2840, 2845]
ch0 : [2566, 2257, 2445, 2522, 2552, 2577, 2511, 2531, 2584, 2568]
ch1 : [3196, 3194, 3188, 3191, 3187, 3191, 3190, 3194, 3194, 3193]
ch2 : [1536, 1542, 1557, 1558, 1555, 1549, 1550, 1554, 1543, 1541]
ch3 : [2839, 2838, 2838, 2844, 2841, 2838, 2836, 2840, 2838, 2840]
ch0 : [2401, 2516, 2536, 2545, 2541, 2473, 2555, 2573, 2321, 2418]
ch1 : [3193, 3194, 3193, 3192, 3190, 3195, 3190, 3193, 3197, 3191]
ch2 : [1551, 1564, 1557, 1557, 1551, 1555, 1557, 1539, 1541, 1562]
ch3 : [2841, 2840, 2844, 2838, 2841, 2837, 2842, 2837, 2835, 2842]
ch0 : [2567, 2567, 2493, 2479, 2543, 2399, 2425, 2524, 2545, 2569]
ch1 : [3191, 3196, 3191, 3186, 3205, 3196, 3193, 3187, 3190, 3195]
ch2 : [1552, 1553, 1551, 1554, 1541, 1537, 1557, 1562, 1561, 1552]
ch3 : [2845, 2839, 2835, 2841, 2840, 2838, 2843, 2836, 2843, 2842]
ch0 : [2531, 2558, 2580, 2557, 2366, 2515, 2548, 2557, 2561, 2516]
ch1 : [3193, 3191, 3190, 3191, 3191, 3195, 3193, 3190, 3196, 3192]
ch2 : [1555, 1571, 1548, 1541, 1551, 1560, 1557, 1554, 1557, 1553]
ch3 : [2836, 2837, 2841, 2840, 2841, 2847, 2840, 2839, 2843, 2840]
ch0 : [2472, 2584, 2469, 2419, 2525, 2549, 2573, 2511, 2541, 2578]
ch1 : [3190, 3192, 3193, 3192, 3199, 3189, 3192, 3202, 3190, 3198]
ch2 : [1550, 1539, 1539, 1553, 1552, 1555, 1554, 1552, 1555, 1539]
ch3 : [2840, 2837, 2837, 2842, 2849, 2842, 2840, 2837, 2834, 2838]
ch0 : [2573, 2347, 2508, 2523, 2533, 2565, 2511, 2471, 2584, 2573]
ch1 : [3192, 3193, 3191, 3193, 3190, 3194, 3192, 3193, 3187, 3188]
ch2 : [1541, 1550, 1559, 1560, 1556, 1548, 1557, 1552, 1544, 1543]
ch3 : [2843, 2839, 2841, 2847, 2841, 2840, 2840, 2841, 2847, 2838]
ch0 : [2411, 2518, 2535, 2577, 2530, 2508, 2581, 2553, 2339, 2508]
ch1 : [3192, 3191, 3192, 3187, 3193, 3197, 3192, 3192, 3196, 3189]
ch2 : [1557, 1558, 1559, 1557, 1554, 1553, 1550, 1541, 1552, 1558]
ch3 : [2843, 2844, 2842, 2839, 2840, 2838, 2839, 2839, 2842, 2843]
ch0 : [2526, 2529, 2535, 2514, 2474, 2579, 2541, 2375, 2503, 2539]
ch1 : [3194, 3191, 3189, 3191, 3187, 3189, 3186, 3194, 3191, 3187]
ch2 : [1556, 1555, 1555, 1558, 1554, 1547, 1534, 1574, 1554, 1556]
ch3 : [2843, 2839, 2833, 2839, 2839, 2838, 2839, 2844, 2845, 2842]
ch0 : [2570, 2538, 2509, 2567, 2577, 2291, 2486, 2521, 2551, 2541]
ch1 : [3192, 3188, 3191, 3192, 3194, 3187, 3195, 3192, 3195, 3191]
ch2 : [1552, 1553, 1556, 1565, 1540, 1547, 1559, 1557, 1557, 1557]
ch3 : [2840, 2837, 2835, 2840, 2841, 2846, 2844, 2836, 2840, 2839]
ch0 : [2507, 2501, 2579, 2504, 2386, 2496, 2543, 2571, 2531, 2511]
ch1 : [3193, 3191, 3196, 3191, 3197, 3196, 3191, 3193, 3190, 3193]
ch2 : [1556, 1560, 1546, 1539, 1559, 1559, 1562, 1556, 1550, 1554]
ch3 : [2841, 2839, 2840, 2837, 2842, 2841, 2840, 2838, 2836, 2836]
ch0 : [2575, 2581, 2303, 2468, 2543, 2538, 2536, 2521, 2500, 2579]
ch1 : [3193, 3192, 3194, 3190, 3187, 3191, 3190, 3200, 3196, 3194]
ch2 : [1558, 1544, 1547, 1562, 1559, 1562, 1556, 1549, 1559, 1552]
ch3 : [2839, 2841, 2841, 2836, 2839, 2840, 2841, 2840, 2841, 2839]
ch0 : [2571, 2346, 2511, 2543, 2575, 2550, 2512, 2559, 2567, 2346]
ch1 : [3189, 3194, 3192, 3187, 3199, 3190, 3187, 3191, 3191, 3190]
ch2 : [1544, 1544, 1562, 1560, 1559, 1560, 1556, 1559, 1549, 1540]
ch3 : [2842, 2844, 2844, 2846, 2839, 2839, 2837, 2852, 2835, 2841]
ch0 : [2548, 2578, 2550, 2506, 2519, 2580, 2444, 2460, 2540, 2532]
ch1 : [3190, 3193, 3192, 3193, 3191, 3192, 3196, 3193, 3192, 3193]
ch2 : [1564, 1557, 1549, 1553, 1560, 1532, 1544, 1558, 1562, 1558]
ch3 : [2844, 2842, 2835, 2836, 2839, 2839, 2844, 2841, 2835, 2835]
ch0 : [2567, 2517, 2515, 2578, 2584, 2318, 2513, 2542, 2572, 2568]
ch1 : [3192, 3192, 3183, 3190, 3188, 3197, 3191, 3192, 3192, 3194]
ch2 : [1556, 1558, 1556, 1552, 1541, 1556, 1567, 1558, 1560, 1556]
ch3 : [2839, 2841, 2840, 2835, 2829, 2840, 2842, 2842, 2839, 2835]
ch0 : [2507, 2511, 2582, 2458, 2475, 2550, 2527, 2560, 2538, 2517]
ch1 : [3187, 3192, 3191, 3191, 3192, 3192, 3190, 3191, 3195, 3192]
ch2 : [1556, 1559, 1547, 1546, 1561, 1564, 1560, 1560, 1560, 1565]
ch3 : [2835, 2838, 2839, 2843, 2841, 2841, 2840, 2840, 2825, 2839]
ch0 : [2580, 2564, 2301, 2496, 2535, 2562, 2569, 2510, 2504, 2580]
ch1 : [3193, 3194, 3193, 3198, 3195, 3194, 3190, 3192, 3193, 3184]
ch2 : [1560, 1551, 1559, 1567, 1563, 1558, 1565, 1540, 1548, 1550]
ch3 : [2845, 2836, 2838, 2838, 2843, 2840, 2835, 2838, 2840, 2834]
ch0 : [2521, 2467, 2531, 2548, 2543, 2535, 2527, 2582, 2584, 2293]
ch1 : [3191, 3179, 3199, 3190, 3193, 3190, 3192, 3196, 3193, 3193]
ch2 : [1541, 1557, 1566, 1562, 1561, 1563, 1561, 1555, 1543, 1558]
ch3 : [2844, 2843, 2844, 2841, 2837, 2830, 2837, 2840, 2836, 2835]
ch0 : [2488, 2548, 2537, 2563, 2520, 2507, 2579, 2528, 2435, 2533]
ch1 : [3191, 3194, 3194, 3193, 3191, 3194, 3188, 3191, 3190, 3192]
ch2 : [1559, 1566, 1556, 1558, 1560, 1558, 1546, 1544, 1561, 1562]
ch3 : [2843, 2843, 2843, 2836, 2838, 2839, 2847, 2841, 2844, 2842]
ch0 : [2547, 2562, 2535, 2523, 2582, 2556, 2251, 2492, 2546, 2549]
ch1 : [3192, 3190, 3194, 3191, 3193, 3193, 3195, 3193, 3196, 3190]
ch2 : [1558, 1562, 1562, 1556, 1553, 1549, 1548, 1560, 1555, 1552]
ch3 : [2844, 2844, 2839, 2839, 2844, 2839, 2844, 2839, 2847, 2844]
ch0 : [2559, 2520, 2505, 2580, 2564, 2431, 2525, 2544, 2571, 2549]
ch1 : [3201, 3191, 3192, 3194, 3195, 3189, 3191, 3187, 3189, 3193]
ch2 : [1551, 1551, 1559, 1545, 1542, 1552, 1550, 1558, 1558, 1556]
ch3 : [2839, 2835, 2840, 2841, 2844, 2842, 2842, 2854, 2843, 2840]
ch0 : [2524, 2579, 2583, 2251, 2460, 2545, 2542, 2569, 2497, 2517]
ch1 : [3191, 3192, 3191, 3198, 3194, 3191, 3191, 3195, 3188, 3190]
ch2 : [1557, 1556, 1541, 1553, 1565, 1565, 1559, 1559, 1558, 1558]
ch3 : [2844, 2844, 2842, 2843, 2845, 2842, 2845, 2839, 2840, 2839]
ch0 : [2579, 2579, 2404, 2520, 2532, 2552, 2524, 2501, 2581, 2554]
ch1 : [3192, 3194, 3200, 3196, 3178, 3191, 3186, 3194, 3205, 3187]
ch2 : [1551, 1551, 1564, 1563, 1564, 1565, 1561, 1570, 1566, 1546]
ch3 : [2842, 2842, 2845, 2845, 2843, 2837, 2841, 2839, 2842, 2839]
ch0 : [2531, 2531, 2562, 2543, 2488, 2507, 2582, 2219, 2441, 2533]
ch1 : [3191, 3191, 3191, 3190, 3193, 3193, 3195, 3200, 3206, 3192]
ch2 : [1581, 1562, 1565, 1561, 1563, 1559, 1542, 1544, 1564, 1562]
ch3 : [2846, 2852, 2841, 2839, 2842, 2844, 2840, 2840, 2845, 2846]
ch0 : [2552, 2558, 2512, 2509, 2584, 2546, 2409, 2522, 2525, 2557]
ch1 : [3192, 3191, 3192, 3196, 3193, 3190, 3187, 3191, 3199, 3191]
ch2 : [1563, 1556, 1558, 1556, 1558, 1546, 1554, 1565, 1545, 1558]
ch3 : [2843, 2839, 2837, 2853, 2839, 2855, 2844, 2844, 2840, 2842]
ch0 : [2550, 2479, 2474, 2538, 2246, 2436, 2529, 2550, 2562, 2516]
ch1 : [3196, 3193, 3193, 3193, 3191, 3192, 3191, 3192, 3193, 3191]
ch2 : [1561, 1543, 1553, 1540, 1543, 1562, 1566, 1558, 1556, 1556]
ch3 : [2844, 2842, 2845, 2839, 2840, 2847, 2845, 2841, 2843, 2839]
ch0 : [2517, 2576, 2574, 2381, 2513, 2533, 2556, 2550, 2496, 2468]
ch1 : [3196, 3194, 3192, 3193, 3194, 3187, 3193, 3205, 3193, 3196]
ch2 : [1557, 1548, 1546, 1556, 1563, 1558, 1561, 1560, 1559, 1560]
ch3 : [2842, 2840, 2841, 2845, 2844, 2845, 2840, 2841, 2842, 2836]
ch0 : [2575, 2324, 2438, 2531, 2534, 2553, 2520, 2525, 2578, 2575]
ch1 : [3191, 3191, 3180, 3193, 3191, 3193, 3195, 3191, 3191, 3191]
ch2 : [1545, 1546, 1563, 1576, 1564, 1559, 1558, 1572, 1556, 1548]
ch3 : [2837, 2842, 2845, 2839, 2837, 2834, 2835, 2838, 2841, 2844]
ch0 : [2371, 2520, 2535, 2551, 2549, 2503, 2462, 2575, 2390, 2428]
ch1 : [3197, 3194, 3190, 3193, 3193, 3195, 3192, 3206, 3200, 3195]
ch2 : [1558, 1565, 1566, 1562, 1561, 1562, 1566, 1547, 1546, 1566]
ch3 : [2842, 2844, 2844, 2843, 2841, 2841, 2834, 2841, 2844, 2844]
ch0 : [2530, 2542, 2571, 2529, 2531, 2572, 2576, 2362, 2509, 2539]
ch1 : [3193, 3191, 3194, 3195, 3183, 3190, 3193, 3196, 3189, 3187]
ch2 : [1563, 1558, 1562, 1554, 1561, 1557, 1546, 1560, 1560, 1562]
ch3 : [2845, 2842, 2838, 2841, 2841, 2839, 2842, 2854, 2844, 2842]
ch0 : [2560, 2560, 2502, 2467, 2579, 2505, 2422, 2515, 2548, 2574]
ch1 : [3195, 3192, 3192, 3191, 3188, 3192, 3192, 3188, 3191, 3196]
ch2 : [1561, 1560, 1562, 1560, 1546, 1556, 1557, 1568, 1557, 1560]
ch3 : [2844, 2840, 2841, 2842, 2838, 2835, 2844, 2842, 2838, 2840]
ch0 : [2531, 2531, 2578, 2580, 2346, 2517, 2539, 2546, 2557, 2524]
ch1 : [3205, 3189, 3188, 3187, 3193, 3191, 3191, 3187, 3193, 3193]
ch2 : [1561, 1558, 1555, 1550, 1554, 1562, 1577, 1560, 1560, 1559]
ch3 : [2837, 2837, 2844, 2844, 2845, 2839, 2838, 2842, 2840, 2840]
ch0 : [2485, 2577, 2485, 2405, 2518, 2541, 2574, 2536, 2535, 2576]
ch1 : [3190, 3192, 3194, 3196, 3188, 3193, 3196, 3192, 3191, 3193]
ch2 : [1557, 1549, 1541, 1561, 1559, 1563, 1559, 1561, 1559, 1555]
ch3 : [2840, 2841, 2837, 2840, 2840, 2841, 2834, 2840, 2833, 2833]
ch0 : [2578, 2334, 2501, 2535, 2519, 2551, 2503, 2471, 2578, 2507]
ch1 : [3191, 3196, 3194, 3193, 3190, 3192, 3187, 3195, 3191, 3188]
ch2 : [1544, 1553, 1562, 1562, 1559, 1559, 1559, 1562, 1553, 1544]
ch3 : [2839, 2834, 2830, 2837, 2837, 2834, 2837, 2832, 2836, 2831]
ch0 : [2388, 2513, 2540, 2569, 2530, 2517, 2578, 2579, 2316, 2493]
ch1 : [3182, 3188, 3190, 3192, 3193, 3187, 3188, 3195, 3197, 3194]
ch2 : [1563, 1564, 1581, 1555, 1558, 1554, 1556, 1552, 1551, 1561]
ch3 : [2836, 2836, 2835, 2828, 2832, 2835, 2828, 2834, 2834, 2836]
ch0 : [2524, 2553, 2544, 2520, 2484, 2571, 2536, 2383, 2508, 2521]
ch1 : [3194, 3191, 3191, 3188, 3194, 3192, 3196, 3192, 3187, 3191]
ch2 : [1560, 1564, 1558, 1556, 1557, 1547, 1542, 1565, 1563, 1562]
ch3 : [2835, 2835, 2834, 2828, 2833, 2829, 2833, 2833, 2834, 2836]
ch0 : [2572, 2554, 2509, 2572, 2574, 2321, 2494, 2567, 2519, 2559]
ch1 : [3193, 3191, 3190, 3191, 3193, 3194, 3195, 3193, 3190, 3183]
ch2 : [1558, 1557, 1557, 1562, 1544, 1551, 1559, 1562, 1551, 1559]
ch3 : [2836, 2835, 2832, 2832, 2833, 2836, 2835, 2832, 2834, 2834]
ch0 : [2518, 2500, 2578, 2551, 2353, 2517, 2527, 2572, 2556, 2513]
ch1 : [3192, 3197, 3194, 3190, 3191, 3184, 3191, 3193, 3183, 3192]
ch2 : [1559, 1560, 1545, 1541, 1557, 1563, 1562, 1557, 1558, 1564]
ch3 : [2834, 2826, 2832, 2829, 2834, 2834, 2835, 2834, 2827, 2831]
ch0 : [2568, 2578, 2328, 2478, 2522, 2521, 2565, 2502, 2495, 2582]
ch1 : [3193, 3191, 3193, 3194, 3194, 3194, 3192, 3190, 3196, 3195]
ch2 : [1559, 1545, 1551, 1558, 1562, 1560, 1565, 1560, 1564, 1556]
ch3 : [2831, 2831, 2832, 2820, 2835, 2829, 2824, 2829, 2830, 2829]
ch0 : [2488, 2344, 2489, 2542, 2567, 2520, 2505, 2542, 2569, 2359]
ch1 : [3203, 3197, 3191, 3192, 3191, 3201, 3194, 3187, 3193, 3193]
ch2 : [1545, 1558, 1564, 1563, 1559, 1561, 1556, 1559, 1541, 1552]
ch3 : [2827, 2826, 2832, 2836, 2833, 2828, 2826, 2829, 2833, 2831]
ch0 : [2467, 2546, 2533, 2552, 2508, 2516, 2578, 2573, 2335, 2494]
ch1 : [3194, 3190, 3190, 3189, 3191, 3204, 3190, 3190, 3194, 3194]
ch2 : [1559, 1562, 1562, 1560, 1559, 1557, 1549, 1541, 1555, 1563]
ch3 : [2830, 2827, 2828, 2830, 2829, 2829, 2830, 2812, 2833, 2833]
ch0 : [2551, 2576, 2559, 2507, 2510, 2580, 2421, 2470, 2549, 2521]
ch1 : [3192, 3191, 3190, 3190, 3193, 3191, 3190, 3190, 3192, 3193]
ch2 : [1563, 1559, 1563, 1560, 1560, 1545, 1543, 1559, 1565, 1562]
ch3 : [2827, 2832, 2829, 2831, 2834, 2834, 2836, 2836, 2837, 2833]
ch0 : [2543, 2519, 2522, 2579, 2518, 2315, 2511, 2529, 2580, 2555]
ch1 : [3194, 3192, 3191, 3194, 3194, 3196, 3191, 3191, 3198, 3193]
ch2 : [1562, 1556, 1560, 1553, 1542, 1546, 1565, 1563, 1560, 1560]
ch3 : [2834, 2831, 2836, 2827, 2832, 2831, 2836, 2835, 2838, 2832]
ch0 : [2581, 2526, 2306, 2492, 2537, 2573, 2561, 2516, 2498, 2581]
ch1 : [3191, 3193, 3194, 3192, 3195, 3192, 3183, 3180, 3192, 3193]
ch2 : [1560, 1548, 1556, 1563, 1563, 1560, 1560, 1559, 1558, 1548]
ch3 : [2831, 2830, 2834, 2838, 2833, 2830, 2832, 2831, 2831, 2831]
ch0 : [2541, 2469, 2535, 2538, 2549, 2549, 2525, 2583, 2568, 2280]
ch1 : [3192, 3194, 3193, 3191, 3191, 3188, 3193, 3191, 3194, 3192]
ch2 : [1553, 1562, 1563, 1560, 1561, 1565, 1562, 1559, 1544, 1556]
ch3 : [2838, 2836, 2833, 2836, 2833, 2834, 2837, 2836, 2834, 2834]
ch0 : [2488, 2545, 2555, 2572, 2506, 2515, 2583, 2553, 2448, 2537]
ch1 : [3190, 3193, 3192, 3195, 3192, 3193, 3190, 3191, 3192, 3181]
ch2 : [1562, 1561, 1569, 1561, 1565, 1565, 1553, 1549, 1569, 1572]
ch3 : [2834, 2840, 2837, 2830, 2834, 2831, 2834, 2840, 2845, 2838]
ch0 : [2537, 2558, 2531, 2531, 2588, 2586, 2262, 2478, 2527, 2551]
ch1 : [3188, 3186, 3190, 3191, 3191, 3203, 3192, 3192, 3193, 3192]
ch2 : [1566, 1562, 1559, 1562, 1557, 1544, 1555, 1564, 1558, 1565]
ch3 : [2835, 2830, 2836, 2834, 2839, 2830, 2838, 2837, 2840, 2840]
ch0 : [2554, 2508, 2514, 2581, 2562, 2436, 2531, 2534, 2567, 2556]
ch1 : [3192, 3189, 3196, 3192, 3190, 3195, 3188, 3195, 3195, 3191]
ch2 : [1555, 1554, 1554, 1544, 1538, 1554, 1558, 1555, 1552, 1550]
ch3 : [2834, 2833, 2836, 2834, 2841, 2836, 2830, 2836, 2838, 2834]
ch0 : [2497, 2581, 2546, 2232, 2469, 2538, 2544, 2578, 2494, 2511]
ch1 : [3187, 3195, 3191, 3206, 3187, 3182, 3190, 3191, 3188, 3187]
ch2 : [1545, 1555, 1535, 1547, 1556, 1555, 1568, 1551, 1552, 1550]
ch3 : [2825, 2837, 2830, 2834, 2840, 2837, 2839, 2831, 2826, 2835]
ch0 : [2574, 2576, 2434, 2535, 2551, 2572, 2545, 2514, 2518, 2588]
ch1 : [3192, 3192, 3191, 3193, 3190, 3185, 3195, 3192, 3187, 3186]
ch2 : [1543, 1538, 1555, 1557, 1557, 1554, 1555, 1556, 1554, 1543]
ch3 : [2835, 2839, 2838, 2831, 2836, 2839, 2835, 2838, 2836, 2834]
ch0 : [2242, 2490, 2535, 2550, 2575, 2523, 2533, 2587, 2586, 2423]
ch1 : [3194, 3188, 3191, 3185, 3186, 3193, 3193, 3190, 3190, 3187]
ch2 : [1544, 1561, 1559, 1554, 1559, 1553, 1552, 1545, 1534, 1550]
ch3 : [2842, 2839, 2835, 2844, 2835, 2836, 2835, 2834, 2834, 2825]
ch0 : [2530, 2545, 2572, 2552, 2506, 2482, 2579, 2237, 2461, 2539]
ch1 : [3191, 3190, 3191, 3193, 3206, 3190, 3194, 3187, 3193, 3190]
ch2 : [1556, 1554, 1553, 1551, 1551, 1565, 1535, 1536, 1554, 1569]
ch3 : [2838, 2837, 2841, 2835, 2835, 2839, 2836, 2839, 2838, 2839]
ch0 : [2561, 2582, 2526, 2538, 2586, 2583, 2417, 2559, 2571, 2586]
ch1 : [3191, 3193, 3185, 3184, 3194, 3196, 3193, 3196, 3193, 3191]
ch2 : [1558, 1549, 1552, 1548, 1541, 1535, 1544, 1553, 1539, 1552]
ch3 : [2829, 2836, 2836, 2835, 2824, 2835, 2842, 2844, 2840, 2836]
ch0 : [2579, 2525, 2516, 2586, 2350, 2480, 2541, 2559, 2590, 2517]
ch1 : [3196, 3189, 3193, 3193, 3197, 3189, 3191, 3189, 3193, 3194]
ch2 : [1548, 1552, 1551, 1540, 1539, 1560, 1557, 1561, 1554, 1555]
ch3 : [2836, 2838, 2841, 2836, 2845, 2841, 2840, 2841, 2837, 2836]
ch0 : [2542, 2595, 2567, 2377, 2524, 2536, 2551, 2543, 2498, 2485]
ch1 : [3189, 3191, 3194, 3188, 3190, 3191, 3194, 3193, 3196, 3194]
ch2 : [1558, 1553, 1544, 1552, 1561, 1557, 1560, 1558, 1558, 1558]
ch3 : [2838, 2842, 2839, 2842, 2841, 2839, 2841, 2840, 2836, 2833]
ch0 : [2590, 2403, 2422, 2521, 2533, 2582, 2501, 2519, 2587, 2551]
ch1 : [3191, 3191, 3192, 3194, 3192, 3194, 3186, 3191, 3193, 3188]
ch2 : [1544, 1542, 1562, 1565, 1559, 1557, 1560, 1558, 1557, 1544]
ch3 : [2837, 2839, 2842, 2844, 2839, 2835, 2837, 2835, 2837, 2842]
ch0 : [2344, 2504, 2529, 2545, 2537, 2515, 2467, 2581, 2452, 2401]
ch1 : [3195, 3191, 3188, 3193, 3193, 3191, 3187, 3195, 3186, 3189]
ch2 : [1555, 1562, 1563, 1563, 1561, 1562, 1565, 1548, 1546, 1566]
ch3 : [2842, 2841, 2840, 2840, 2837, 2842, 2850, 2837, 2837, 2842]
ch0 : [2502, 2534, 2566, 2501, 2514, 2574, 2560, 2328, 2479, 2513]
ch1 : [3196, 3178, 3194, 3195, 3193, 3192, 3192, 3194, 3186, 3193]
ch2 : [1566, 1554, 1562, 1561, 1561, 1559, 1547, 1555, 1569, 1563]
ch3 : [2853, 2840, 2838, 2837, 2837, 2834, 2848, 2842, 2841, 2839]
ch0 : [2544, 2534, 2488, 2452, 2572, 2497, 2380, 2490, 2530, 2560]
ch1 : [3193, 3192, 3194, 3195, 3191, 3196, 3192, 3191, 3195, 3181]
ch2 : [1566, 1562, 1557, 1561, 1553, 1543, 1569, 1580, 1566, 1561]
ch3 : [2840, 2838, 2840, 2839, 2839, 2839, 2843, 2845, 2840, 2840]
ch0 : [2502, 2489, 2568, 2567, 2314, 2476, 2517, 2498, 2527, 2498]
ch1 : [3191, 3194, 3191, 3191, 3189, 3188, 3190, 3192, 3192, 3194]
ch2 : [1561, 1561, 1558, 1550, 1554, 1566, 1573, 1564, 1563, 1565]
ch3 : [2832, 2838, 2837, 2824, 2843, 2841, 2840, 2841, 2839, 2838]
ch0 : [2470, 2567, 2498, 2379, 2496, 2516, 2553, 2520, 2503, 2554]
ch1 : [3195, 3191, 3193, 3190, 3190, 3193, 3187, 3196, 3191, 3190]
ch2 : [1553, 1555, 1547, 1565, 1564, 1565, 1560, 1563, 1564, 1559]
ch3 : [2838, 2838, 2838, 2838, 2844, 2829, 2836, 2837, 2838, 2836]
ch0 : [2567, 2299, 2470, 2506, 2526, 2539, 2502, 2472, 2553, 2531]
ch1 : [3192, 3192, 3192, 3193, 3193, 3190, 3191, 3196, 3190, 3190]
ch2 : [1551, 1554, 1566, 1568, 1565, 1566, 1566, 1563, 1547, 1556]
ch3 : [2841, 2839, 2841, 2844, 2834, 2839, 2836, 2839, 2838, 2835]
ch0 : [2364, 2486, 2521, 2556, 2520, 2483, 2537, 2561, 2277, 2479]
ch1 : [3191, 3193, 3187, 3187, 3194, 3191, 3187, 3187, 3191, 3187]
ch2 : [1565, 1566, 1566, 1563, 1567, 1561, 1562, 1546, 1557, 1570]
ch3 : [2841, 2840, 2840, 2836, 2834, 2836, 2839, 2838, 2849, 2850]
ch0 : [2564, 2511, 2480, 2559, 2569, 2292, 2458, 2506, 2494, 2540]
ch1 : [3184, 3190, 3191, 3190, 3188, 3196, 3191, 3193, 3191, 3191]
ch2 : [1561, 1571, 1563, 1562, 1551, 1554, 1569, 1577, 1568, 1580]
ch3 : [2835, 2832, 2839, 2837, 2840, 2842, 2839, 2839, 2839, 2841]
ch0 : [2510, 2491, 2569, 2477, 2334, 2497, 2524, 2557, 2524, 2512]
ch1 : [3188, 3191, 3194, 3193, 3195, 3191, 3186, 3193, 3191, 3191]
ch2 : [1566, 1570, 1554, 1551, 1565, 1572, 1555, 1564, 1565, 1563]
ch3 : [2840, 2842, 2838, 2837, 2853, 2842, 2840, 2841, 2838, 2821]
ch0 : [2523, 2562, 2373, 2446, 2502, 2509, 2533, 2503, 2503, 2563]
ch1 : [3188, 3192, 3191, 3195, 3195, 3187, 3189, 3190, 3192, 3193]
ch2 : [1559, 1551, 1551, 1564, 1568, 1566, 1565, 1563, 1565, 1556]
ch3 : [2832, 2839, 2835, 2839, 2836, 2841, 2839, 2839, 2839, 2838]
ch0 : [2489, 2311, 2462, 2544, 2561, 2545, 2536, 2556, 2570, 2473]
ch1 : [3194, 3197, 3191, 3190, 3186, 3191, 3193, 3192, 3193, 3192]
ch2 : [1546, 1561, 1569, 1569, 1562, 1567, 1562, 1563, 1549, 1554]
ch3 : [2834, 2840, 2841, 2830, 2839, 2834, 2842, 2834, 2835, 2838]
ch0 : [2475, 2563, 2566, 2547, 2444, 2488, 2575, 2504, 2360, 2546]
ch1 : [3195, 3189, 3193, 3192, 3191, 3190, 3185, 3195, 3195, 3191]
ch2 : [1562, 1562, 1562, 1571, 1568, 1569, 1557, 1546, 1559, 1563]
ch3 : [2840, 2838, 2838, 2836, 2834, 2835, 2837, 2837, 2835, 2838]
ch0 : [2578, 2588, 2590, 2458, 2434, 2585, 2532, 2500, 2578, 2580]
ch1 : [3189, 3194, 3192, 3191, 3196, 3192, 3191, 3191, 3190, 3191]
ch2 : [1564, 1559, 1563, 1563, 1561, 1555, 1552, 1565, 1569, 1566]
ch3 : [2836, 2833, 2833, 2833, 2835, 2840, 2826, 2827, 2831, 2840]
ch0 : [2528, 2490, 2484, 2585, 2556, 2309, 2562, 2506, 2578, 2583]
ch1 : [3192, 3187, 3194, 3193, 3194, 3193, 3192, 3190, 3190, 3191]
ch2 : [1568, 1562, 1573, 1559, 1549, 1560, 1565, 1571, 1560, 1567]
ch3 : [2831, 2833, 2832, 2829, 2828, 2830, 2834, 2835, 2832, 2824]
ch0 : [2523, 2506, 2578, 2421, 2426, 2567, 2566, 2553, 2568, 2528]
ch1 : [3191, 3194, 3186, 3192, 3189, 3193, 3195, 3193, 3194, 3194]
ch2 : [1561, 1559, 1556, 1547, 1567, 1562, 1565, 1563, 1561, 1561]
ch3 : [2822, 2813, 2815, 2834, 2836, 2831, 2836, 2826, 2818, 2819]
ch0 : [2581, 2537, 2252, 2485, 2577, 2578, 2585, 2470, 2398, 2502]
ch1 : [3187, 3188, 3191, 3191, 3191, 3192, 3193, 3192, 3194, 3190]
ch2 : [1559, 1544, 1559, 1571, 1571, 1566, 1564, 1560, 1562, 1552]
ch3 : [2822, 2805, 2815, 2821, 2826, 2828, 2827, 2823, 2821, 2821]
ch0 : [2570, 2574, 2578, 2578, 2535, 2511, 2583, 2609, 2600, 2260]
ch1 : [3196, 3200, 3190, 3193, 3194, 3181, 3195, 3192, 3193, 3191]
ch2 : [1551, 1566, 1570, 1564, 1563, 1563, 1562, 1561, 1538, 1560]
ch3 : [2821, 2823, 2826, 2826, 2829, 2835, 2836, 2832, 2824, 2819]
ch0 : [2505, 2548, 2532, 2494, 2574, 2535, 2251, 2556, 2574, 2563]
ch1 : [3196, 3193, 3192, 3194, 3194, 3193, 3193, 3188, 3195, 3190]
ch2 : [1563, 1564, 1560, 1557, 1558, 1535, 1553, 1564, 1564, 1566]
ch3 : [2830, 2832, 2824, 2830, 2829, 2827, 2822, 2828, 2829, 2836]
ch0 : [2515, 2566, 2403, 2564, 2545, 2457, 2565, 2563, 2529, 2584]
ch1 : [3189, 3192, 3192, 3191, 3189, 3192, 3192, 3192, 3188, 3190]
ch2 : [1553, 1555, 1545, 1550, 1544, 1558, 1565, 1563, 1559, 1561]
ch3 : [2834, 2828, 2818, 2811, 2808, 2824, 2821, 2809, 2804, 2811]
ch0 : [2555, 2560, 2408, 2118, 2435, 2537, 2562, 2549, 2507, 2548]
ch1 : [3190, 3192, 3190, 3191, 3195, 3191, 3192, 3191, 3189, 3191]
ch2 : [1562, 1566, 1549, 1558, 1567, 1566, 1565, 1565, 1563, 1565]
ch3 : [2811, 2813, 2815, 2805, 2815, 2812, 2810, 2803, 2807, 2807]
ch0 : [2574, 2468, 2373, 2560, 2555, 2473, 2565, 2546, 2368, 2510]
ch1 : [3198, 3191, 3196, 3192, 3192, 3191, 3192, 3193, 3195, 3183]
ch2 : [1556, 1556, 1570, 1571, 1571, 1572, 1572, 1581, 1568, 1557]
ch3 : [2812, 2812, 2816, 2818, 2820, 2816, 2819, 2813, 2814, 2811]
ch0 : [2247, 2566, 2574, 2558, 2520, 2256, 2339, 2565, 2568, 2443]
ch1 : [3195, 3190, 3192, 3196, 3184, 3184, 3184, 3196, 3191, 3194]
ch2 : [1577, 1576, 1573, 1571, 1571, 1567, 1556, 1562, 1557, 1571]
ch3 : [2811, 2807, 2801, 2806, 2803, 2803, 2794, 2797, 2799, 2793]
ch0 : [2509, 2520, 2511, 2492, 2408, 2350, 2563, 2225, 2475, 2557]
ch1 : [3190, 3188, 3190, 3187, 3190, 3194, 3191, 3195, 3192, 3194]
ch2 : [1575, 1575, 1577, 1576, 1571, 1569, 1559, 1560, 1575, 1571]
ch3 : [2788, 2792, 2793, 2796, 2796, 2792, 2789, 2790, 2797, 2792]
ch0 : [2548, 2550, 2541, 2452, 2556, 2526, 2444, 2521, 2494, 2535]
ch1 : [3193, 3194, 3196, 3189, 3190, 3187, 3182, 3187, 3191, 3193]
ch2 : [1574, 1570, 1570, 1571, 1566, 1558, 1573, 1574, 1576, 1573]
ch3 : [2792, 2788, 2789, 2785, 2790, 2786, 2784, 2772, 2779, 2778]
ch0 : [2433, 2390, 2470, 2573, 2248, 2394, 2532, 2533, 2560, 2467]
ch1 : [3196, 3194, 3191, 3194, 3190, 3193, 3190, 3193, 3192, 3191]
ch2 : [1576, 1570, 1570, 1558, 1564, 1574, 1581, 1575, 1574, 1567]
ch3 : [2772, 2775, 2784, 2774, 2775, 2771, 2771, 2778, 2772, 2766]
ch0 : [2414, 2553, 2530, 2352, 2450, 2467, 2548, 2521, 2392, 2399]
ch1 : [3193, 3191, 3192, 3194, 3193, 3188, 3193, 3192, 3194, 3191]
ch2 : [1573, 1569, 1553, 1572, 1580, 1575, 1576, 1574, 1569, 1579]
ch3 : [2774, 2769, 2754, 2772, 2768, 2771, 2770, 2766, 2764, 2763]
ch0 : [2553, 2393, 2300, 2442, 2445, 2465, 2480, 2463, 2546, 2539]
ch1 : [3191, 3192, 3191, 3193, 3207, 3191, 3197, 3193, 3191, 3195]
ch2 : [1560, 1559, 1575, 1581, 1578, 1574, 1575, 1586, 1573, 1562]
ch3 : [2758, 2755, 2760, 2757, 2753, 2750, 2756, 2756, 2751, 2756]
ch0 : [2412, 2444, 2532, 2428, 2433, 2535, 2531, 2346, 2353, 2447]
ch1 : [3191, 3193, 3194, 3194, 3187, 3191, 3190, 3187, 3196, 3194]
ch2 : [1580, 1580, 1582, 1578, 1590, 1576, 1567, 1574, 1587, 1582]
ch3 : [2755, 2750, 2748, 2745, 2749, 2748, 2742, 2753, 2751, 2751]
ch0 : [2540, 2429, 2391, 2382, 2491, 2419, 2373, 2520, 2497, 2473]
ch1 : [3189, 3192, 3201, 3191, 3194, 3192, 3193, 3192, 3192, 3193]
ch2 : [1584, 1581, 1583, 1581, 1570, 1563, 1584, 1584, 1585, 1580]
ch3 : [2747, 2744, 2759, 2753, 2738, 2740, 2751, 2748, 2748, 2737]
ch0 : [2378, 2463, 2529, 2466, 2308, 2415, 2527, 2527, 2527, 2318]
ch1 : [3193, 3192, 3184, 3195, 3193, 3183, 3191, 3192, 3190, 3205]
ch2 : [1582, 1583, 1576, 1564, 1582, 1588, 1590, 1580, 1581, 1583]
ch3 : [2736, 2729, 2736, 2743, 2741, 2746, 2739, 2734, 2733, 2735]
ch0 : [2348, 2536, 2364, 2376, 2526, 2423, 2385, 2473, 2508, 2541]
ch1 : [3193, 3191, 3197, 3193, 3190, 3195, 3189, 3192, 3192, 3194]
ch2 : [1585, 1561, 1564, 1581, 1586, 1585, 1583, 1588, 1586, 1583]
ch3 : [2734, 2737, 2727, 2740, 2737, 2735, 2727, 2723, 2725, 2727]
ch0 : [2463, 2186, 2377, 2509, 2418, 2361, 2460, 2520, 2536, 2429]
ch1 : [3194, 3196, 3179, 3192, 3190, 3187, 3196, 3187, 3194, 3193]
ch2 : [1570, 1576, 1583, 1587, 1597, 1584, 1588, 1582, 1574, 1565]
ch3 : [2727, 2734, 2737, 2730, 2734, 2730, 2728, 2729, 2727, 2725]
ch0 : [2144, 2499, 2379, 2468, 2369, 2465, 2530, 2532, 2229, 2260]
ch1 : [3196, 3192, 3191, 3196, 3194, 3192, 3191, 3193, 3200, 3191]
ch2 : [1578, 1587, 1589, 1582, 1583, 1578, 1585, 1568, 1574, 1586]
ch3 : [2726, 2730, 2730, 2724, 2731, 2726, 2732, 2734, 2733, 2733]
ch0 : [2446, 2470, 2367, 2250, 2426, 2516, 2476, 2288, 2464, 2498]
ch1 : [3193, 3205, 3192, 3193, 3196, 3193, 3196, 3200, 3196, 3193]
ch2 : [1591, 1584, 1588, 1582, 1583, 1575, 1562, 1585, 1590, 1586]
ch3 : [2735, 2730, 2728, 2725, 2729, 2731, 2732, 2733, 2733, 2729]
ch0 : [2455, 2298, 2507, 2509, 2420, 2108, 2454, 2508, 2453, 2440]
ch1 : [3186, 3192, 3192, 3191, 3189, 3201, 3190, 3187, 3204, 3195]
ch2 : [1585, 1582, 1585, 1586, 1572, 1575, 1574, 1585, 1593, 1585]
ch3 : [2728, 2719, 2720, 2732, 2729, 2729, 2732, 2725, 2726, 2721]
ch0 : [2400, 2369, 2516, 2408, 2244, 2425, 2435, 2486, 2452, 2406]
ch1 : [3192, 3193, 3194, 3191, 3195, 3191, 3191, 3193, 3196, 3193]
ch2 : [1574, 1588, 1576, 1573, 1584, 1590, 1590, 1588, 1587, 1586]
ch3 : [2717, 2719, 2713, 2722, 2730, 2723, 2715, 2713, 2714, 2712]
ch0 : [2410, 2511, 2323, 2369, 2496, 2476, 2433, 2479, 2444, 2436]
ch1 : [3192, 3196, 3193, 3191, 3191, 3195, 3197, 3193, 3195, 3192]
ch2 : [1587, 1572, 1578, 1590, 1588, 1590, 1587, 1586, 1587, 1584]
ch3 : [2716, 2715, 2723, 2730, 2717, 2708, 2703, 2715, 2721, 2720]
ch0 : [2338, 2269, 2456, 2497, 2500, 2463, 2344, 2390, 2504, 2318]
ch1 : [3194, 3192, 3196, 3193, 3192, 3191, 3194, 3196, 3193, 3205]
ch2 : [1572, 1586, 1593, 1588, 1584, 1592, 1586, 1583, 1563, 1575]
ch3 : [2720, 2705, 2720, 2719, 2716, 2705, 2711, 2720, 2721, 2722]
ch0 : [2309, 2411, 2417, 2498, 2505, 2379, 2377, 2449, 2270, 2416]
ch1 : [3194, 3195, 3195, 3196, 3193, 3199, 3194, 3196, 3193, 3196]
ch2 : [1586, 1591, 1590, 1587, 1593, 1586, 1582, 1570, 1584, 1590]
ch3 : [2719, 2707, 2708, 2712, 2711, 2713, 2709, 2716, 2712, 2712]
ch0 : [2444, 2496, 2458, 2303, 2311, 2491, 2497, 2446, 2453, 2322]
ch1 : [3192, 3192, 3190, 3195, 3196, 3192, 3187, 3195, 3191, 3192]
ch2 : [1590, 1587, 1583, 1588, 1586, 1579, 1574, 1587, 1593, 1579]
ch3 : [2711, 2707, 2700, 2706, 2708, 2716, 2718, 2712, 2713, 2703]
ch0 : [2312, 2449, 2491, 2500, 2453, 2158, 2440, 2481, 2341, 2378]
ch1 : [3195, 3194, 3191, 3187, 3191, 3200, 3189, 3191, 3190, 3200]
ch2 : [1591, 1590, 1595, 1586, 1572, 1584, 1594, 1599, 1588, 1589]
ch3 : [2710, 2704, 2712, 2714, 2707, 2712, 2714, 2716, 2715, 2706]
ch0 : [2255, 2452, 2503, 2434, 2344, 2367, 2430, 2422, 2372, 2358]
ch1 : [3195, 3194, 3191, 3182, 3192, 3198, 3193, 3193, 3196, 3197]
ch2 : [1588, 1595, 1579, 1580, 1590, 1594, 1584, 1591, 1592, 1591]
ch3 : [2709, 2708, 2703, 2706, 2716, 2710, 2709, 2701, 2694, 2691]
ch0 : [2502, 2508, 2141, 2219, 2358, 2381, 2494, 2424, 2268, 2494]
ch1 : [3189, 3193, 3200, 3193, 3196, 3196, 3185, 3191, 3195, 3194]
ch2 : [1589, 1578, 1585, 1596, 1595, 1593, 1590, 1595, 1588, 1580]
ch3 : [2704, 2701, 2701, 2707, 2704, 2696, 2689, 2691, 2699, 2693]
ch0 : [2496, 2255, 2413, 2463, 2363, 2410, 2369, 2492, 2484, 2080]
ch1 : [3196, 3195, 3193, 3193, 3192, 3206, 3195, 3185, 3187, 3198]
ch2 : [1577, 1594, 1595, 1593, 1593, 1587, 1589, 1590, 1574, 1582]
ch3 : [2708, 2700, 2702, 2697, 2702, 2710, 2710, 2712, 2704, 2700]
ch0 : [2281, 2412, 2430, 2209, 2489, 2316, 2478, 2438, 2271, 2396]
ch1 : [3197, 3193, 3193, 3198, 3187, 3192, 3192, 3194, 3195, 3193]
ch2 : [1591, 1594, 1592, 1591, 1594, 1592, 1585, 1580, 1591, 1594]
ch3 : [2704, 2705, 2703, 2703, 2705, 2707, 2710, 2709, 2701, 2699]
ch0 : [2424, 2483, 2492, 2310, 2490, 2418, 2009, 2277, 2479, 2489]
ch1 : [3192, 3193, 3191, 3195, 3195, 3190, 3194, 3193, 3195, 3193]
ch2 : [1592, 1590, 1594, 1590, 1594, 1593, 1584, 1598, 1592, 1594]
ch3 : [2700, 2701, 2701, 2701, 2694, 2703, 2709, 2708, 2700, 2694]
ch0 : [2358, 2351, 2386, 2491, 2460, 2307, 2406, 2398, 2309, 2446]
ch1 : [3195, 3194, 3194, 3192, 3193, 3191, 3188, 3193, 3193, 3197]
ch2 : [1594, 1594, 1595, 1582, 1587, 1595, 1598, 1600, 1597, 1596]
ch3 : [2696, 2694, 2694, 2696, 2699, 2702, 2698, 2704, 2700, 2708]
ch0 : [2492, 2398, 2254, 2394, 2350, 2461, 2429, 2390, 2345, 2434]
ch1 : [3193, 3194, 3195, 3191, 3193, 3194, 3195, 3190, 3194, 3187]
ch2 : [1587, 1582, 1587, 1601, 1600, 1595, 1596, 1598, 1602, 1580]
ch3 : [2683, 2690, 2698, 2701, 2699, 2694, 2693, 2688, 2686, 2693]
ch0 : [2155, 2315, 2388, 2404, 2453, 2375, 2429, 2488, 2463, 2195]
ch1 : [3195, 3190, 3193, 3177, 3192, 3191, 3205, 3191, 3180, 3193]
ch2 : [1587, 1602, 1603, 1609, 1611, 1615, 1602, 1592, 1593, 1597]
ch3 : [2692, 2699, 2700, 2695, 2692, 2694, 2702, 2693, 2696, 2697]
ch0 : [2311, 2377, 2429, 2384, 2375, 2352, 2491, 2235, 2268, 2468]
ch1 : [3191, 3190, 3191, 3191, 3195, 3192, 3191, 3184, 3196, 3195]
ch2 : [1607, 1601, 1606, 1594, 1599, 1595, 1585, 1585, 1601, 1604]
ch3 : [2699, 2696, 2698, 2696, 2692, 2699, 2703, 2694, 2695, 2698]
ch0 : [2493, 2364, 2423, 2466, 2410, 2486, 2289, 2338, 2351, 2446]
ch1 : [3194, 3200, 3201, 3188, 3187, 3191, 3190, 3195, 3187, 3197]
ch2 : [1604, 1600, 1599, 1602, 1594, 1593, 1596, 1603, 1614, 1602]
ch3 : [2675, 2689, 2691, 2687, 2692, 2692, 2695, 2689, 2689, 2692]
ch0 : [2435, 2382, 2340, 2486, 2209, 2354, 2439, 2463, 2347, 2311]
ch1 : [3185, 3193, 3190, 3196, 3197, 3192, 3191, 3191, 3187, 3190]
ch2 : [1606, 1602, 1595, 1589, 1586, 1608, 1602, 1600, 1602, 1604]
ch3 : [2700, 2696, 2686, 2673, 2681, 2688, 2696, 2700, 2697, 2686]
ch0 : [2458, 2476, 2445, 2272, 2428, 2415, 2409, 2343, 2426, 2386]
ch1 : [3195, 3196, 3195, 3194, 3190, 3186, 3196, 3195, 3196, 3201]
ch2 : [1598, 1599, 1595, 1598, 1610, 1604, 1621, 1599, 1603, 1603]
ch3 : [2687, 2687, 2692, 2693, 2694, 2690, 2688, 2686, 2684, 2683]
ch0 : [2476, 2401, 2212, 2441, 2417, 2400, 2375, 2458, 2488, 2424]
ch1 : [3192, 3194, 3192, 3186, 3191, 3190, 3195, 3192, 3187, 3196]
ch2 : [1586, 1584, 1608, 1613, 1604, 1604, 1601, 1604, 1598, 1592]
ch3 : [2687, 2696, 2689, 2683, 2684, 2692, 2688, 2686, 2688, 2690]
ch0 : [2146, 2321, 2399, 2333, 2425, 2365, 2339, 2481, 2493, 2206]
ch1 : [3198, 3193, 3194, 3206, 3191, 3189, 3198, 3196, 3192, 3196]
ch2 : [1593, 1603, 1609, 1604, 1602, 1602, 1599, 1591, 1586, 1606]
ch3 : [2694, 2690, 2683, 2684, 2696, 2691, 2675, 2682, 2689, 2698]
ch0 : [2398, 2386, 2416, 2468, 2425, 2485, 2350, 2156, 2463, 2412]
ch1 : [3190, 3194, 3198, 3195, 3191, 3191, 3198, 3194, 3195, 3196]
ch2 : [1615, 1605, 1603, 1605, 1599, 1599, 1588, 1594, 1606, 1603]
ch3 : [2697, 2692, 2685, 2681, 2680, 2683, 2686, 2691, 2691, 2697]
ch0 : [2322, 2339, 2385, 2337, 2465, 2328, 2254, 2355, 2375, 2462]
ch1 : [3193, 3189, 3194, 3194, 3190, 3193, 3194, 3195, 3193, 3196]
ch2 : [1599, 1605, 1597, 1600, 1588, 1575, 1602, 1606, 1604, 1603]
ch3 : [2696, 2696, 2687, 2693, 2690, 2690, 2697, 2697, 2696, 2692]
ch0 : [2380, 2356, 2467, 2446, 2144, 2323, 2392, 2374, 2394, 2364]
ch1 : [3198, 3191, 3196, 3191, 3183, 3197, 3193, 3207, 3197, 3197]
ch2 : [1599, 1610, 1601, 1587, 1591, 1602, 1607, 1604, 1603, 1601]
ch3 : [2693, 2693, 2693, 2694, 2690, 2694, 2693, 2691, 2688, 2690]
ch0 : [2354, 2475, 2408, 2207, 2358, 2398, 2474, 2389, 2345, 2438]
ch1 : [3196, 3192, 3191, 3203, 3197, 3187, 3191, 3193, 3192, 3193]
ch2 : [1601, 1588, 1584, 1602, 1608, 1605, 1608, 1599, 1603, 1603]
ch3 : [2688, 2690, 2688, 2687, 2697, 2696, 2691, 2687, 2687, 2689]
ch0 : [2471, 2148, 2322, 2399, 2379, 2417, 2387, 2327, 2478, 2390]
ch1 : [3205, 3196, 3197, 3192, 3192, 3198, 3197, 3197, 3195, 3193]
ch2 : [1592, 1593, 1609, 1621, 1606, 1604, 1604, 1606, 1597, 1583]
ch3 : [2691, 2694, 2695, 2687, 2688, 2688, 2695, 2693, 2691, 2687]
ch0 : [2186, 2364, 2388, 2465, 2429, 2382, 2385, 2452, 2228, 2338]
ch1 : [3201, 3193, 3195, 3191, 3190, 3190, 3192, 3196, 3195, 3194]
ch2 : [1612, 1615, 1609, 1595, 1610, 1607, 1606, 1596, 1597, 1607]
ch3 : [2693, 2696, 2695, 2692, 2692, 2687, 2690, 2691, 2696, 2698]
ch0 : [2395, 2406, 2385, 2362, 2369, 2475, 2430, 2183, 2367, 2404]
ch1 : [3196, 3195, 3197, 3197, 3187, 3191, 3196, 3196, 3193, 3192]
ch2 : [1611, 1613, 1610, 1607, 1610, 1605, 1594, 1608, 1613, 1609]
ch3 : [2696, 2699, 2697, 2696, 2697, 2698, 2696, 2700, 2702, 2706]
ch0 : [2463, 2412, 2351, 2355, 2458, 2316, 2319, 2383, 2388, 2403]
ch1 : [3193, 3190, 3195, 3193, 3192, 3192, 3197, 3196, 3193, 3196]
ch2 : [1614, 1609, 1593, 1611, 1597, 1602, 1612, 1613, 1611, 1610]
ch3 : [2701, 2689, 2700, 2713, 2700, 2710, 2705, 2708, 2707, 2705]
ch0 : [2368, 2388, 2469, 2445, 2146, 2344, 2383, 2445, 2404, 2352]
ch1 : [3195, 3199, 3192, 3195, 3200, 3194, 3187, 3195, 3190, 3187]
ch2 : [1611, 1609, 1605, 1579, 1593, 1610, 1612, 1611, 1602, 1621]
ch3 : [2714, 2708, 2709, 2708, 2714, 2714, 2718, 2722, 2711, 2711]
ch0 : [2341, 2476, 2348, 2298, 2392, 2379, 2408, 2386, 2370, 2474]
ch1 : [3188, 3179, 3201, 3193, 3190, 3196, 3191, 3195, 3191, 3187]
ch2 : [1608, 1597, 1597, 1602, 1616, 1616, 1612, 1610, 1610, 1604]
ch3 : [2709, 2714, 2720, 2720, 2723, 2719, 2721, 2715, 2722, 2719]
ch0 : [2470, 2154, 2348, 2396, 2416, 2401, 2378, 2354, 2470, 2394]
ch1 : [3196, 3194, 3194, 3193, 3192, 3196, 3192, 3192, 3192, 3188]
ch2 : [1598, 1603, 1609, 1598, 1608, 1603, 1611, 1607, 1596, 1594]
ch3 : [2727, 2722, 2723, 2725, 2723, 2721, 2718, 2724, 2729, 2729]
ch0 : [2313, 2377, 2379, 2408, 2389, 2370, 2476, 2433, 2153, 2340]
ch1 : [3195, 3194, 3193, 3196, 3192, 3190, 3190, 3193, 3195, 3191]
ch2 : [1608, 1611, 1608, 1608, 1609, 1608, 1603, 1593, 1597, 1606]
ch3 : [2733, 2736, 2732, 2729, 2729, 2732, 2732, 2730, 2726, 2736]
ch0 : [2398, 2404, 2431, 2388, 2378, 2473, 2428, 2316, 2407, 2422]
ch1 : [3191, 3193, 3191, 3192, 3205, 3191, 3198, 3190, 3195, 3187]
ch2 : [1610, 1605, 1614, 1602, 1608, 1595, 1591, 1604, 1609, 1602]
ch3 : [2740, 2733, 2730, 2733, 2731, 2731, 2738, 2739, 2737, 2741]
ch0 : [2429, 2414, 2391, 2482, 2410, 2117, 2353, 2411, 2429, 2446]
ch1 : [3195, 3205, 3192, 3192, 3197, 3206, 3195, 3194, 3196, 3195]
ch2 : [1608, 1605, 1608, 1601, 1588, 1600, 1608, 1611, 1603, 1586]
ch3 : [2737, 2732, 2736, 2740, 2733, 2736, 2739, 2740, 2743, 2735]
ch0 : [2414, 2386, 2489, 2414, 2315, 2403, 2406, 2432, 2409, 2379]
ch1 : [3192, 3194, 3192, 3195, 3194, 3192, 3194, 3192, 3196, 3194]
ch2 : [1605, 1605, 1589, 1587, 1602, 1604, 1602, 1601, 1607, 1599]
ch3 : [2734, 2744, 2738, 2750, 2740, 2740, 2739, 2739, 2740, 2735]
ch0 : [2485, 2489, 2104, 2328, 2409, 2411, 2447, 2386, 2374, 2493]
ch1 : [3196, 3193, 3197, 3197, 3196, 3192, 3196, 3197, 3192, 3193]
ch2 : [1601, 1585, 1592, 1606, 1608, 1600, 1599, 1598, 1601, 1589]
ch3 : [2741, 2741, 2740, 2745, 2745, 2742, 2736, 2741, 2725, 2746]
ch0 : [2432, 2284, 2398, 2405, 2418, 2416, 2372, 2415, 2456, 2087]
ch1 : [3193, 3190, 3194, 3191, 3195, 3193, 3195, 3196, 3193, 3194]
ch2 : [1582, 1600, 1617, 1601, 1602, 1599, 1599, 1600, 1603, 1594]
ch3 : [2748, 2743, 2743, 2749, 2743, 2745, 2745, 2748, 2747, 2753]
ch0 : [2320, 2415, 2415, 2443, 2393, 2384, 2487, 2452, 2283, 2385]
ch1 : [3196, 3189, 3192, 3191, 3193, 3193, 3194, 3197, 3192, 3194]
ch2 : [1610, 1599, 1601, 1602, 1601, 1596, 1590, 1586, 1597, 1602]
ch3 : [2749, 2746, 2750, 2749, 2743, 2743, 2748, 2752, 2752, 2749]
ch0 : [2403, 2441, 2430, 2372, 2365, 2479, 2119, 2334, 2405, 2435]
ch1 : [3195, 3192, 3191, 3205, 3191, 3193, 3198, 3197, 3195, 3194]
ch2 : [1602, 1590, 1607, 1600, 1601, 1584, 1589, 1603, 1603, 1602]
ch3 : [2750, 2752, 2749, 2750, 2751, 2753, 2753, 2755, 2758, 2752]
ch0 : [2454, 2392, 2381, 2486, 2415, 2270, 2398, 2415, 2434, 2408]
ch1 : [3191, 3193, 3193, 3193, 3192, 3192, 3196, 3187, 3203, 3200]
ch2 : [1598, 1600, 1595, 1589, 1585, 1593, 1605, 1598, 1599, 1600]
ch3 : [2750, 2747, 2753, 2749, 2756, 2764, 2756, 2758, 2755, 2755]
ch0 : [2385, 2347, 2489, 2140, 2315, 2409, 2423, 2443, 2386, 2399]
ch1 : [3192, 3190, 3194, 3203, 3194, 3194, 3192, 3195, 3191, 3187]
ch2 : [1598, 1598, 1579, 1583, 1601, 1597, 1600, 1597, 1597, 1596]
ch3 : [2765, 2759, 2745, 2760, 2758, 2761, 2755, 2757, 2756, 2757]
ch0 : [2197, 2325, 2422, 2443, 2461, 2389, 2420, 2494, 2466, 2264]
ch1 : [3192, 3187, 3193, 3203, 3190, 3179, 3192, 3189, 3193, 3193]
ch2 : [1583, 1602, 1586, 1603, 1598, 1597, 1600, 1584, 1603, 1601]
ch3 : [2757, 2760, 2766, 2765, 2755, 2763, 2763, 2762, 2765, 2759]
ch0 : [2407, 2432, 2457, 2430, 2386, 2377, 2489, 2274, 2324, 2416]
ch1 : [3193, 3195, 3193, 3192, 3195, 3194, 3191, 3193, 3188, 3191]
ch2 : [1600, 1601, 1603, 1604, 1602, 1598, 1589, 1585, 1604, 1605]
ch3 : [2766, 2765, 2762, 2763, 2763, 2766, 2762, 2764, 2762, 2769]
ch0 : [2440, 2473, 2412, 2436, 2500, 2463, 2265, 2411, 2432, 2445]
ch1 : [3192, 3196, 3191, 3194, 3190, 3191, 3181, 3197, 3188, 3195]
ch2 : [1598, 1598, 1597, 1599, 1593, 1588, 1594, 1600, 1602, 1605]
ch3 : [2761, 2764, 2764, 2759, 2762, 2758, 2768, 2772, 2762, 2766]
ch0 : [2456, 2404, 2369, 2502, 2383, 2315, 2435, 2447, 2497, 2406]
ch1 : [3194, 3193, 3196, 3190, 3192, 3196, 3193, 3194, 3195, 3195]
ch2 : [1598, 1595, 1595, 1587, 1583, 1602, 1601, 1607, 1596, 1595]
ch3 : [2767, 2768, 2769, 2770, 2768, 2776, 2776, 2774, 2769, 2768]
ch0 : [2429, 2506, 2489, 2251, 2398, 2431, 2452, 2451, 2407, 2376]
ch1 : [3195, 3186, 3189, 3200, 3192, 3190, 3193, 3195, 3195, 3193]
ch2 : [1595, 1589, 1582, 1594, 1600, 1613, 1596, 1600, 1598, 1596]
ch3 : [2766, 2765, 2773, 2774, 2775, 2764, 2771, 2771, 2773, 2771]
ch0 : [2508, 2407, 2330, 2461, 2489, 2508, 2483, 2458, 2517, 2520]
ch1 : [3194, 3194, 3193, 3196, 3192, 3205, 3191, 3193, 3192, 3188]
ch2 : [1578, 1579, 1597, 1599, 1599, 1598, 1600, 1595, 1588, 1582]
ch3 : [2772, 2770, 2773, 2779, 2772, 2770, 2773, 2772, 2777, 2771]
ch0 : [2289, 2433, 2467, 2471, 2457, 2423, 2401, 2518, 2431, 2308]
ch1 : [3194, 3189, 3195, 3196, 3202, 3196, 3195, 3191, 3183, 3194]
ch2 : [1592, 1600, 1599, 1603, 1598, 1598, 1598, 1585, 1586, 1599]
ch3 : [2774, 2777, 2774, 2771, 2773, 2773, 2775, 2773, 2774, 2777]
ch0 : [2417, 2445, 2512, 2431, 2411, 2515, 2515, 2223, 2396, 2414]
ch1 : [3195, 3193, 3187, 3190, 3193, 3194, 3193, 3192, 3191, 3195]
ch2 : [1599, 1599, 1597, 1598, 1597, 1592, 1585, 1593, 1600, 1602]
ch3 : [2782, 2781, 2776, 2768, 2772, 2774, 2776, 2780, 2781, 2776]
ch0 : [2437, 2457, 2426, 2372, 2514, 2392, 2265, 2419, 2438, 2503]
ch1 : [3195, 3191, 3194, 3194, 3194, 3191, 3194, 3195, 3197, 3195]
ch2 : [1597, 1599, 1600, 1597, 1582, 1579, 1598, 1605, 1601, 1598]
ch3 : [2778, 2781, 2777, 2778, 2777, 2777, 2779, 2781, 2781, 2778]
ch0 : [2437, 2421, 2512, 2516, 2212, 2384, 2435, 2429, 2455, 2402]
ch1 : [3191, 3199, 3194, 3197, 3195, 3191, 3194, 3192, 3192, 3190]
ch2 : [1593, 1601, 1599, 1584, 1590, 1602, 1604, 1599, 1601, 1596]
ch3 : [2773, 2777, 2776, 2780, 2782, 2779, 2780, 2785, 2779, 2780]
ch0 : [2385, 2513, 2397, 2277, 2427, 2451, 2498, 2449, 2397, 2500]
ch1 : [3189, 3194, 3193, 3189, 3192, 3196, 3193, 3196, 3192, 3192]
ch2 : [1598, 1587, 1573, 1598, 1606, 1600, 1599, 1598, 1597, 1591]
ch3 : [2779, 2778, 2777, 2782, 2782, 2781, 2779, 2776, 2778, 2778]
ch0 : [2439, 2221, 2374, 2431, 2415, 2458, 2407, 2397, 2492, 2388]
ch1 : [3189, 3196, 3191, 3186, 3194, 3194, 3187, 3187, 3190, 3189]
ch2 : [1586, 1586, 1605, 1602, 1601, 1598, 1596, 1598, 1588, 1582]
ch3 : [2783, 2779, 2789, 2780, 2779, 2794, 2783, 2778, 2785, 2778]
ch0 : [2270, 2376, 2429, 2497, 2425, 2388, 2452, 2473, 2230, 2352]
ch1 : [3194, 3193, 3196, 3187, 3195, 3191, 3191, 3190, 3196, 3193]
ch2 : [1603, 1604, 1601, 1598, 1599, 1601, 1594, 1586, 1604, 1594]
ch3 : [2780, 2786, 2785, 2786, 2783, 2780, 2782, 2783, 2784, 2786]
ch0 : [2415, 2423, 2445, 2415, 2395, 2503, 2370, 2271, 2386, 2465]
ch1 : [3192, 3193, 3192, 3191, 3193, 3193, 3195, 3196, 3196, 3194]
ch2 : [1599, 1603, 1600, 1603, 1597, 1591, 1569, 1598, 1605, 1601]
ch3 : [2783, 2786, 2779, 2779, 2783, 2784, 2784, 2785, 2789, 2785]
ch0 : [2495, 2444, 2397, 2425, 2487, 2283, 2364, 2427, 2419, 2452]
ch1 : [3197, 3196, 3178, 3196, 3193, 3190, 3192, 3194, 3183, 3192]
ch2 : [1599, 1601, 1593, 1599, 1585, 1589, 1595, 1601, 1603, 1600]
ch3 : [2783, 2783, 2783, 2784, 2784, 2786, 2786, 2786, 2784, 2785]
ch0 : [2401, 2412, 2507, 2452, 2225, 2395, 2438, 2495, 2454, 2403]
ch1 : [3190, 3203, 3192, 3192, 3203, 3178, 3191, 3196, 3195, 3191]
ch2 : [1600, 1598, 1589, 1583, 1595, 1605, 1599, 1600, 1599, 1601]
ch3 : [2788, 2783, 2784, 2784, 2787, 2788, 2788, 2789, 2783, 2785]
ch0 : [2414, 2511, 2333, 2365, 2431, 2438, 2439, 2421, 2428, 2509]
ch1 : [3189, 3182, 3195, 3191, 3192, 3196, 3193, 3191, 3190, 3196]
ch2 : [1599, 1586, 1581, 1605, 1600, 1599, 1598, 1596, 1596, 1592]
ch3 : [2785, 2786, 2790, 2789, 2789, 2789, 2786, 2787, 2786, 2792]
ch0 : [2428, 2205, 2393, 2438, 2495, 2450, 2415, 2403, 2503, 2406]
ch1 : [3189, 3196, 3194, 3193, 3200, 3193, 3192, 3190, 3190, 3195]
ch2 : [1581, 1594, 1604, 1595, 1595, 1595, 1597, 1594, 1582, 1586]
ch3 : [2785, 2777, 2787, 2790, 2791, 2784, 2782, 2787, 2783, 2788]
ch0 : [2361, 2436, 2425, 2439, 2413, 2419, 2507, 2440, 2260, 2383]
ch1 : [3196, 3194, 3183, 3196, 3193, 3196, 3192, 3196, 3200, 3196]
ch2 : [1599, 1604, 1602, 1599, 1597, 1595, 1598, 1581, 1596, 1604]
ch3 : [2793, 2787, 2786, 2789, 2787, 2789, 2789, 2785, 2788, 2792]
ch0 : [2417, 2481, 2451, 2400, 2389, 2509, 2442, 2351, 2431, 2426]
ch1 : [3190, 3192, 3188, 3193, 3196, 3187, 3194, 3196, 3191, 3190]
ch2 : [1597, 1598, 1598, 1597, 1600, 1590, 1584, 1600, 1602, 1598]
ch3 : [2788, 2791, 2786, 2786, 2789, 2787, 2787, 2793, 2786, 2789]
ch0 : [2467, 2436, 2387, 2507, 2478, 2167, 2378, 2429, 2441, 2471]
ch1 : [3191, 3193, 3192, 3196, 3184, 3191, 3195, 3193, 3194, 3196]
ch2 : [1599, 1599, 1602, 1594, 1582, 1595, 1603, 1602, 1594, 1596]
ch3 : [2786, 2792, 2792, 2793, 2785, 2791, 2796, 2796, 2791, 2787]
ch0 : [2510, 2491, 2168, 2386, 2426, 2481, 2490, 2418, 2416, 2516]
ch1 : [3196, 3192, 3192, 3198, 3193, 3194, 3187, 3195, 3190, 3192]
ch2 : [1595, 1583, 1586, 1605, 1602, 1598, 1596, 1597, 1596, 1582]
ch3 : [2795, 2782, 2787, 2795, 2796, 2796, 2792, 2788, 2788, 2792]
ch0 : [2485, 2363, 2418, 2459, 2496, 2471, 2437, 2514, 2481, 2197]
ch1 : [3192, 3193, 3194, 3192, 3186, 3191, 3192, 3191, 3192, 3194]
ch2 : [1584, 1599, 1601, 1613, 1598, 1603, 1594, 1600, 1580, 1591]
ch3 : [2793, 2796, 2789, 2794, 2792, 2791, 2795, 2793, 2792, 2803]
ch0 : [2398, 2460, 2467, 2512, 2431, 2436, 2523, 2474, 2348, 2461]
ch1 : [3182, 3193, 3203, 3194, 3190, 3193, 3190, 3195, 3193, 3193]
ch2 : [1603, 1604, 1599, 1595, 1593, 1597, 1585, 1585, 1597, 1601]
ch3 : [2807, 2795, 2791, 2792, 2789, 2792, 2792, 2786, 2798, 2796]
ch0 : [2476, 2493, 2474, 2442, 2512, 2518, 2175, 2399, 2469, 2443]
ch1 : [3193, 3193, 3194, 3191, 3195, 3193, 3182, 3191, 3189, 3194]
ch2 : [1597, 1586, 1598, 1591, 1598, 1580, 1594, 1604, 1598, 1601]
ch3 : [2796, 2797, 2791, 2797, 2793, 2796, 2792, 2798, 2796, 2796]
ch0 : [2520, 2434, 2445, 2533, 2505, 2331, 2455, 2469, 2486, 2460]
ch1 : [3193, 3195, 3193, 3192, 3195, 3193, 3196, 3193, 3189, 3191]
ch2 : [1597, 1600, 1597, 1588, 1583, 1596, 1602, 1600, 1598, 1595]
ch3 : [2792, 2799, 2793, 2805, 2797, 2799, 2792, 2794, 2801, 2794]
ch0 : [2423, 2426, 2506, 2155, 2376, 2446, 2474, 2520, 2446, 2443]
ch1 : [3189, 3191, 3195, 3197, 3193, 3196, 3193, 3192, 3192, 3190]
ch2 : [1596, 1596, 1583, 1585, 1596, 1601, 1598, 1598, 1597, 1589]
ch3 : [2799, 2796, 2792, 2794, 2798, 2805, 2797, 2791, 2795, 2793]
ch0 : [2531, 2466, 2316, 2450, 2482, 2494, 2495, 2431, 2408, 2528]
ch1 : [3190, 3193, 3194, 3195, 3192, 3191, 3194, 3193, 3195, 3188]
ch2 : [1593, 1582, 1589, 1601, 1604, 1598, 1596, 1598, 1590, 1583]
ch3 : [2805, 2800, 2799, 2798, 2797, 2797, 2805, 2795, 2798, 2796]
ch0 : [2174, 2387, 2443, 2449, 2510, 2440, 2445, 2528, 2432, 2324]
ch1 : [3197, 3194, 3189, 3190, 3190, 3191, 3200, 3201, 3194, 3197]
ch2 : [1587, 1603, 1599, 1597, 1601, 1596, 1607, 1587, 1581, 1595]
ch3 : [2798, 2804, 2802, 2798, 2795, 2795, 2797, 2796, 2802, 2798]
ch0 : [2433, 2441, 2458, 2482, 2408, 2395, 2519, 2206, 2355, 2440]
ch1 : [3194, 3193, 3190, 3193, 3195, 3192, 3195, 3198, 3191, 3196]
ch2 : [1603, 1599, 1600, 1599, 1599, 1600, 1582, 1582, 1599, 1605]
ch3 : [2801, 2796, 2798, 2797, 2795, 2790, 2792, 2797, 2804, 2802]
ch0 : [2468, 2515, 2424, 2434, 2520, 2479, 2312, 2428, 2464, 2461]
ch1 : [3192, 3192, 3191, 3197, 3205, 3191, 3194, 3195, 3189, 3191]
ch2 : [1599, 1597, 1595, 1600, 1592, 1570, 1591, 1601, 1600, 1603]
ch3 : [2801, 2800, 2797, 2800, 2797, 2801, 2803, 2801, 2800, 2799]
ch0 : [2449, 2519, 2500, 2275, 2429, 2441, 2470, 2461, 2429, 2378]
ch1 : [3192, 3189, 3192, 3192, 3194, 3193, 3196, 3197, 3197, 3182]
ch2 : [1597, 1589, 1583, 1592, 1598, 1598, 1599, 1596, 1600, 1598]
ch3 : [2812, 2799, 2802, 2805, 2799, 2795, 2798, 2794, 2799, 2801]
ch0 : [2516, 2333, 2342, 2435, 2465, 2502, 2436, 2435, 2516, 2482]
ch1 : [3190, 3194, 3195, 3191, 3194, 3182, 3193, 3196, 3193, 3192]
ch2 : [1597, 1581, 1599, 1600, 1605, 1601, 1594, 1595, 1592, 1582]
ch3 : [2800, 2796, 2803, 2804, 2803, 2799, 2797, 2800, 2801, 2800]
ch0 : [2266, 2409, 2449, 2453, 2457, 2420, 2385, 2517, 2348, 2322]
ch1 : [3192, 3189, 3197, 3193, 3193, 3192, 3193, 3176, 3193, 3194]
ch2 : [1588, 1599, 1585, 1597, 1597, 1597, 1599, 1584, 1575, 1605]
ch3 : [2798, 2801, 2799, 2801, 2800, 2797, 2801, 2809, 2799, 2802]
ch0 : [2425, 2448, 2504, 2432, 2418, 2516, 2502, 2231, 2404, 2449]
ch1 : [3188, 3193, 3198, 3192, 3191, 3195, 3192, 3197, 3191, 3193]
ch2 : [1605, 1601, 1599, 1600, 1592, 1579, 1589, 1595, 1602, 1587]
ch3 : [2803, 2802, 2799, 2796, 2801, 2797, 2804, 2802, 2801, 2801]
ch0 : [2443, 2456, 2425, 2373, 2510, 2431, 2302, 2431, 2468, 2498]
ch1 : [3192, 3194, 3192, 3190, 3190, 3192, 3196, 3196, 3193, 3196]
ch2 : [1604, 1597, 1597, 1598, 1589, 1582, 1602, 1604, 1597, 1599]
ch3 : [2802, 2788, 2802, 2799, 2801, 2799, 2805, 2804, 2806, 2795]
ch0 : [2444, 2429, 2519, 2516, 2248, 2403, 2452, 2449, 2457, 2415]
ch1 : [3192, 3195, 3200, 3188, 3195, 3190, 3187, 3196, 3193, 3191]
ch2 : [1600, 1596, 1594, 1581, 1594, 1605, 1603, 1604, 1600, 1603]
ch3 : [2798, 2797, 2801, 2804, 2803, 2806, 2809, 2802, 2806, 2802]
ch0 : [2390, 2509, 2452, 2289, 2433, 2451, 2506, 2456, 2418, 2520]
ch1 : [3190, 3188, 3193, 3191, 3192, 3198, 3194, 3192, 3195, 3192]
ch2 : [1596, 1586, 1580, 1603, 1606, 1599, 1598, 1602, 1601, 1606]
ch3 : [2804, 2804, 2799, 2808, 2808, 2803, 2789, 2801, 2802, 2805]
ch0 : [2502, 2225, 2402, 2460, 2442, 2492, 2423, 2394, 2504, 2503]
ch1 : [3191, 3199, 3193, 3193, 3195, 3193, 3192, 3191, 3193, 3188]
ch2 : [1599, 1590, 1601, 1597, 1600, 1599, 1601, 1597, 1586, 1584]
ch3 : [2806, 2809, 2803, 2804, 2803, 2803, 2802, 2804, 2801, 2798]
ch0 : [2298, 2448, 2448, 2510, 2456, 2442, 2512, 2505, 2231, 2393]
ch1 : [3193, 3192, 3196, 3196, 3195, 3191, 3190, 3194, 3195, 3193]
ch2 : [1600, 1604, 1611, 1604, 1605, 1609, 1598, 1586, 1594, 1605]
ch3 : [2807, 2808, 2807, 2805, 2799, 2804, 2805, 2801, 2804, 2805]
ch0 : [2445, 2435, 2468, 2418, 2408, 2519, 2497, 2271, 2403, 2461]
ch1 : [3190, 3192, 3192, 3180, 3190, 3194, 3193, 3197, 3188, 3192]
ch2 : [1603, 1608, 1595, 1604, 1597, 1590, 1582, 1599, 1608, 1607]
ch3 : [2803, 2803, 2804, 2803, 2805, 2805, 2803, 2814, 2809, 2808]
ch0 : [2418, 2415, 2524, 2524, 2251, 2419, 2450, 2507, 2470, 2431]
ch1 : [3193, 3192, 3185, 3194, 3196, 3187, 3195, 3192, 3192, 3190]
ch2 : [1598, 1604, 1589, 1580, 1598, 1616, 1602, 1603, 1599, 1592]
ch3 : [2793, 2802, 2803, 2804, 2807, 2811, 2795, 2805, 2801, 2804]
ch0 : [2449, 2524, 2327, 2384, 2448, 2451, 2467, 2439, 2431, 2523]
ch1 : [3192, 3188, 3194, 3191, 3196, 3191, 3196, 3197, 3198, 3193]
ch2 : [1593, 1587, 1587, 1603, 1604, 1598, 1599, 1598, 1600, 1595]
ch3 : [2805, 2808, 2808, 2809, 2807, 2802, 2805, 2803, 2804, 2807]
ch0 : [2449, 2239, 2404, 2452, 2511, 2467, 2416, 2414, 2518, 2356]
ch1 : [3194, 3195, 3188, 3192, 3195, 3195, 3192, 3192, 3191, 3190]
ch2 : [1583, 1597, 1599, 1607, 1599, 1610, 1603, 1598, 1587, 1588]
ch3 : [2803, 2806, 2810, 2818, 2806, 2805, 2803, 2812, 2804, 2809]
ch0 : [2375, 2450, 2442, 2468, 2433, 2438, 2516, 2439, 2232, 2406]
ch1 : [3190, 3191, 3192, 3196, 3197, 3194, 3191, 3192, 3198, 3197]
ch2 : [1602, 1606, 1601, 1602, 1598, 1593, 1597, 1577, 1597, 1605]
ch3 : [2807, 2807, 2809, 2808, 2803, 2806, 2807, 2804, 2804, 2808]
ch0 : [2439, 2513, 2466, 2425, 2411, 2520, 2439, 2366, 2447, 2447]
ch1 : [3194, 3190, 3191, 3191, 3192, 3195, 3196, 3194, 3182, 3203]
ch2 : [1617, 1600, 1599, 1599, 1599, 1587, 1585, 1607, 1602, 1604]
ch3 : [2812, 2804, 2797, 2804, 2804, 2811, 2809, 2810, 2809, 2808]
ch0 : [2465, 2435, 2430, 2519, 2438, 2207, 2397, 2443, 2489, 2465]
ch1 : [3196, 3191, 3192, 3199, 3195, 3195, 3191, 3190, 3193, 3190]
ch2 : [1602, 1603, 1598, 1595, 1573, 1600, 1608, 1604, 1603, 1597]
ch3 : [2807, 2808, 2805, 2804, 2809, 2807, 2810, 2807, 2810, 2802]
ch0 : [2425, 2423, 2515, 2468, 2362, 2439, 2457, 2465, 2447, 2455]
ch1 : [3193, 3192, 3191, 3192, 3203, 3192, 3192, 3190, 3193, 3196]
ch2 : [1599, 1603, 1586, 1590, 1601, 1601, 1598, 1600, 1599, 1599]
ch3 : [2798, 2816, 2807, 2812, 2803, 2806, 2808, 2807, 2808, 2808]
ch0 : [2519, 2409, 2198, 2380, 2443, 2457, 2478, 2437, 2420, 2518]
ch1 : [3191, 3197, 3195, 3191, 3194, 3189, 3193, 3200, 3197, 3195]
ch2 : [1601, 1585, 1598, 1604, 1609, 1600, 1598, 1599, 1599, 1590]
ch3 : [2809, 2806, 2808, 2816, 2809, 2810, 2805, 2806, 2808, 2806]
ch0 : [2506, 2356, 2440, 2450, 2463, 2447, 2459, 2514, 2490, 2150]
ch1 : [3193, 3193, 3195, 3194, 3191, 3193, 3190, 3190, 3195, 3192]
ch2 : [1589, 1602, 1605, 1601, 1606, 1601, 1604, 1599, 1586, 1600]
ch3 : [2808, 2812, 2809, 2815, 2807, 2808, 2806, 2811, 2804, 2807]
ch0 : [2376, 2464, 2471, 2505, 2419, 2427, 2521, 2456, 2353, 2445]
ch1 : [3190, 3192, 3194, 3193, 3191, 3187, 3193, 3197, 3195, 3194]
ch2 : [1600, 1600, 1602, 1602, 1595, 1599, 1588, 1588, 1604, 1603]
ch3 : [2807, 2810, 2808, 2804, 2806, 2809, 2808, 2813, 2811, 2806]
ch0 : [2448, 2481, 2461, 2422, 2518, 2413, 2147, 2394, 2451, 2462]
ch1 : [3194, 3190, 3191, 3193, 3194, 3192, 3194, 3197, 3192, 3192]
ch2 : [1604, 1602, 1594, 1604, 1601, 1582, 1595, 1597, 1606, 1598]
ch3 : [2809, 2803, 2807, 2810, 2813, 2809, 2808, 2813, 2810, 2810]
ch0 : [2497, 2431, 2434, 2515, 2492, 2357, 2447, 2455, 2474, 2471]
ch1 : [3193, 3191, 3188, 3196, 3187, 3196, 3187, 3192, 3190, 3195]
ch2 : [1603, 1599, 1598, 1590, 1584, 1605, 1602, 1603, 1603, 1614]
ch3 : [2809, 2807, 2806, 2799, 2808, 2811, 2808, 2809, 2812, 2807]
ch0 : [2419, 2464, 2450, 2156, 2387, 2444, 2463, 2512, 2430, 2433]
ch1 : [3194, 3191, 3193, 3198, 3193, 3192, 3192, 3193, 3195, 3193]
ch2 : [1602, 1596, 1585, 1590, 1605, 1598, 1599, 1600, 1602, 1602]
ch3 : [2808, 2813, 2809, 2808, 2812, 2810, 2809, 2807, 2809, 2808]
ch0 : [2524, 2469, 2340, 2447, 2448, 2476, 2446, 2414, 2421, 2468]
ch1 : [3189, 3188, 3196, 3191, 3197, 3193, 3196, 3204, 3196, 3193]
ch2 : [1592, 1587, 1601, 1604, 1603, 1588, 1601, 1593, 1601, 1586]
ch3 : [2807, 2811, 2813, 2811, 2812, 2813, 2812, 2809, 2811, 2808]
ch0 : [2139, 2381, 2453, 2470, 2505, 2430, 2439, 2518, 2490, 2319]
ch1 : [3195, 3187, 3188, 3193, 3192, 3191, 3196, 3189, 3187, 3185]
ch2 : [1592, 1605, 1604, 1601, 1605, 1599, 1602, 1590, 1589, 1598]
ch3 : [2810, 2816, 2813, 2811, 2805, 2809, 2807, 2809, 2810, 2805]
ch0 : [2445, 2451, 2487, 2469, 2423, 2390, 2527, 2179, 2370, 2451]
ch1 : [3194, 3192, 3186, 3191, 3191, 3197, 3190, 3195, 3184, 3191]
ch2 : [1605, 1605, 1601, 1601, 1604, 1601, 1585, 1594, 1606, 1609]
ch3 : [2817, 2812, 2812, 2811, 2811, 2816, 2806, 2812, 2813, 2814]
ch0 : [2463, 2502, 2424, 2449, 2518, 2491, 2302, 2429, 2463, 2493]
ch1 : [3195, 3190, 3194, 3197, 3190, 3187, 3200, 3191, 3193, 3195]
ch2 : [1603, 1596, 1600, 1601, 1594, 1580, 1602, 1607, 1601, 1602]
ch3 : [2818, 2809, 2809, 2807, 2807, 2813, 2814, 2812, 2812, 2814]
ch0 : [2471, 2419, 2388, 2524, 2245, 2350, 2441, 2471, 2518, 2430]
ch1 : [3191, 3193, 3191, 3195, 3183, 3195, 3191, 3193, 3195, 3193]
ch2 : [1602, 1602, 1602, 1584, 1584, 1601, 1609, 1600, 1602, 1595]
ch3 : [2814, 2812, 2811, 2806, 2809, 2814, 2815, 2815, 2813, 2808]
ch0 : [2453, 2510, 2527, 2300, 2434, 2463, 2483, 2462, 2436, 2382]
ch1 : [3193, 3189, 3196, 3192, 3191, 3195, 3190, 3190, 3190, 3193]
ch2 : [1600, 1591, 1598, 1599, 1604, 1604, 1606, 1600, 1613, 1604]
ch3 : [2812, 2810, 2812, 2822, 2816, 2810, 2807, 2809, 2812, 2813]
ch0 : [2526, 2335, 2372, 2449, 2467, 2510, 2435, 2442, 2524, 2472]
ch1 : [3193, 3196, 3195, 3195, 3191, 3193, 3192, 3191, 3193, 3190]
ch2 : [1590, 1578, 1608, 1609, 1621, 1602, 1604, 1603, 1595, 1588]
ch3 : [2811, 2809, 2815, 2815, 2813, 2809, 2806, 2804, 2812, 2816]
ch0 : [2432, 2462, 2507, 2445, 2455, 2522, 2501, 2270, 2422, 2451]
ch1 : [3195, 3192, 3190, 3194, 3192, 3195, 3193, 3194, 3191, 3196]
ch2 : [1612, 1606, 1600, 1602, 1599, 1598, 1588, 1584, 1606, 1606]
ch3 : [2817, 2814, 2812, 2809, 2809, 2810, 2811, 2816, 2816, 2816]
ch0 : [2465, 2466, 2449, 2393, 2527, 2436, 2333, 2433, 2488, 2503]
ch1 : [3194, 3192, 3202, 3192, 3195, 3201, 3195, 3193, 3196, 3184]
ch2 : [1603, 1604, 1604, 1601, 1591, 1586, 1611, 1606, 1608, 1607]
ch3 : [2811, 2815, 2807, 2815, 2818, 2812, 2815, 2817, 2818, 2821]
ch0 : [2452, 2443, 2520, 2498, 2245, 2420, 2461, 2448, 2477, 2430]
ch1 : [3188, 3195, 3194, 3190, 3196, 3193, 3188, 3200, 3184, 3195]
ch2 : [1599, 1602, 1600, 1585, 1595, 1607, 1607, 1600, 1604, 1604]
ch3 : [2806, 2811, 2815, 2815, 2815, 2817, 2814, 2811, 2806, 2815]
ch0 : [2386, 2521, 2398, 2320, 2437, 2469, 2516, 2461, 2442, 2516]
ch1 : [3194, 3200, 3191, 3193, 3191, 3193, 3182, 3193, 3194, 3191]
ch2 : [1601, 1592, 1587, 1610, 1611, 1605, 1602, 1601, 1598, 1601]
ch3 : [2818, 2812, 2813, 2814, 2811, 2815, 2812, 2809, 2812, 2813]
ch0 : [2506, 2254, 2440, 2459, 2441, 2482, 2429, 2404, 2523, 2418]
ch1 : [3193, 3192, 3194, 3192, 3200, 3197, 3192, 3192, 3191, 3194]
ch2 : [1591, 1593, 1606, 1606, 1605, 1619, 1602, 1595, 1596, 1589]
ch3 : [2814, 2814, 2816, 2815, 2815, 2814, 2811, 2814, 2811, 2814]
ch0 : [2307, 2432, 2465, 2519, 2456, 2441, 2520, 2516, 2242, 2410]
ch1 : [3192, 3195, 3194, 3186, 3196, 3193, 3187, 3191, 3194, 3196]
ch2 : [1606, 1609, 1610, 1598, 1602, 1604, 1595, 1593, 1591, 1606]
ch3 : [2815, 2818, 2818, 2813, 2812, 2811, 2812, 2815, 2818, 2808]
ch0 : [2471, 2444, 2473, 2434, 2404, 2525, 2476, 2297, 2424, 2464]
ch1 : [3191, 3191, 3193, 3194, 3196, 3193, 3192, 3191, 3192, 3196]
ch2 : [1606, 1604, 1604, 1604, 1598, 1592, 1582, 1608, 1609, 1606]
ch3 : [2815, 2813, 2813, 2812, 2814, 2811, 2811, 2817, 2815, 2813]
ch0 : [2515, 2450, 2435, 2520, 2514, 2228, 2422, 2450, 2434, 2479]
ch1 : [3190, 3191, 3192, 3189, 3194, 3193, 3191, 3191, 3190, 3200]
ch2 : [1603, 1604, 1606, 1603, 1589, 1595, 1610, 1609, 1606, 1605]
ch3 : [2819, 2814, 2804, 2813, 2815, 2819, 2816, 2814, 2817, 2815]
ch0 : [2439, 2419, 2523, 2489, 2281, 2420, 2466, 2516, 2452, 2420]
ch1 : [3194, 3191, 3191, 3193, 3200, 3195, 3191, 3191, 3191, 3194]
ch2 : [1599, 1602, 1599, 1586, 1608, 1608, 1609, 1609, 1604, 1602]
ch3 : [2815, 2815, 2819, 2811, 2818, 2817, 2819, 2815, 2815, 2813]
ch0 : [2515, 2513, 2238, 2401, 2465, 2472, 2478, 2464, 2413, 2537]
ch1 : [3191, 3187, 3194, 3194, 3193, 3192, 3194, 3193, 3196, 3192]
ch2 : [1597, 1593, 1596, 1607, 1607, 1604, 1604, 1604, 1605, 1595]
ch3 : [2815, 2816, 2820, 2818, 2814, 2817, 2817, 2815, 2814, 2814]
ch0 : [2449, 2273, 2432, 2459, 2524, 2504, 2454, 2515, 2524, 2299]
ch1 : [3194, 3189, 3188, 3193, 3192, 3191, 3195, 3190, 3187, 3198]
ch2 : [1588, 1604, 1609, 1607, 1608, 1599, 1604, 1608, 1592, 1597]
ch3 : [2805, 2817, 2819, 2816, 2812, 2813, 2810, 2814, 2815, 2816]
ch0 : [2437, 2462, 2430, 2470, 2399, 2438, 2524, 2531, 2259, 2418]
ch1 : [3191, 3191, 3192, 3192, 3193, 3192, 3192, 3184, 3192, 3202]
ch2 : [1606, 1598, 1601, 1610, 1603, 1606, 1595, 1587, 1594, 1610]
ch3 : [2827, 2812, 2812, 2814, 2813, 2811, 2812, 2811, 2820, 2815]
ch0 : [2453, 2522, 2459, 2474, 2489, 2495, 2307, 2431, 2523, 2470]
ch1 : [3193, 3194, 3192, 3193, 3200, 3192, 3190, 3193, 3191, 3196]
ch2 : [1609, 1603, 1602, 1601, 1617, 1591, 1591, 1606, 1607, 1607]
ch3 : [2817, 2812, 2810, 2811, 2811, 2816, 2816, 2816, 2808, 2812]
ch0 : [2452, 2402, 2473, 2533, 2526, 2208, 2407, 2462, 2521, 2472]
ch1 : [3193, 3195, 3191, 3192, 3191, 3196, 3192, 3193, 3196, 3197]
ch2 : [1605, 1606, 1610, 1599, 1586, 1602, 1614, 1592, 1604, 1601]
ch3 : [2820, 2818, 2815, 2823, 2815, 2813, 2811, 2815, 2818, 2812]
ch0 : [2445, 2490, 2536, 2490, 2530, 2532, 2398, 2427, 2328, 2297]
ch1 : [3192, 3196, 3194, 3190, 3193, 3180, 3196, 3195, 3197, 3193]
ch2 : [1602, 1604, 1597, 1590, 1606, 1606, 1599, 1605, 1605, 1606]
ch3 : [2816, 2806, 2816, 2811, 2809, 2808, 2812, 2812, 2809, 2802]
ch0 : [2529, 2543, 2429, 2483, 2458, 2499, 2533, 2429, 2453, 2395]
ch1 : [3190, 3187, 3205, 3198, 3193, 3182, 3186, 3194, 3192, 3193]
ch2 : [1596, 1588, 1595, 1607, 1605, 1605, 1598, 1602, 1602, 1594]
ch3 : [2801, 2799, 2802, 2808, 2809, 2804, 2799, 2803, 2804, 2801]
ch0 : [2221, 2444, 2527, 2524, 2445, 2355, 2380, 2533, 2498, 2365]
ch1 : [3197, 3195, 3196, 3194, 3193, 3193, 3192, 3191, 3196, 3181]
ch2 : [1589, 1605, 1602, 1614, 1603, 1602, 1601, 1597, 1584, 1599]
ch3 : [2807, 2809, 2804, 2801, 2802, 2808, 2814, 2819, 2808, 2806]
ch0 : [2510, 2531, 2352, 2251, 2366, 2499, 2527, 2485, 2424, 2513]
ch1 : [3193, 3187, 3202, 3196, 3197, 3192, 3192, 3191, 3201, 3193]
ch2 : [1608, 1604, 1595, 1602, 1602, 1608, 1585, 1588, 1606, 1610]
ch3 : [2812, 2819, 2816, 2808, 2808, 2805, 2802, 2811, 2813, 2814]
ch0 : [2427, 2404, 2411, 2391, 2520, 2424, 2136, 2462, 2499, 2517]
ch1 : [3190, 3193, 3194, 3191, 3190, 3193, 3198, 3197, 3187, 3192]
ch2 : [1600, 1601, 1598, 1603, 1600, 1586, 1601, 1607, 1604, 1609]
ch3 : [2816, 2812, 2812, 2803, 2799, 2789, 2794, 2808, 2811, 2815]
ch0 : [2457, 2389, 2342, 2473, 2489, 2422, 2426, 2482, 2511, 2439]
ch1 : [3193, 3192, 3194, 3201, 3193, 3192, 3202, 3195, 3193, 3195]
ch2 : [1602, 1604, 1601, 1591, 1588, 1597, 1601, 1603, 1599, 1599]
ch3 : [2811, 2804, 2799, 2798, 2807, 2807, 2811, 2802, 2804, 2810]
ch0 : [2465, 2514, 2419, 2469, 2444, 2519, 2521, 2286, 2490, 2339]
ch1 : [3200, 3191, 3193, 3194, 3195, 3189, 3183, 3187, 3195, 3195]
ch2 : [1590, 1587, 1597, 1605, 1604, 1604, 1601, 1598, 1599, 1588]
ch3 : [2811, 2814, 2806, 2801, 2799, 2800, 2804, 2797, 2792, 2786]
ch0 : [2162, 2460, 2502, 2485, 2437, 2455, 2477, 2521, 2444, 2233]
ch1 : [3195, 3194, 3193, 3196, 3208, 3193, 3194, 3192, 3192, 3193]
ch2 : [1598, 1610, 1606, 1606, 1604, 1604, 1604, 1593, 1586, 1603]
ch3 : [2788, 2799, 2802, 2800, 2793, 2789, 2789, 2787, 2778, 2782]
ch0 : [2318, 2307, 2504, 2499, 2397, 2505, 2513, 2116, 2329, 2437]
ch1 : [3192, 3190, 3191, 3198, 3192, 3192, 3191, 3197, 3192, 3194]
ch2 : [1614, 1608, 1608, 1611, 1609, 1606, 1594, 1597, 1606, 1613]
ch3 : [2787, 2785, 2793, 2786, 2791, 2804, 2783, 2786, 2788, 2791]
ch0 : [2479, 2508, 2443, 2293, 2484, 2433, 2295, 2494, 2377, 2395]
ch1 : [3191, 3196, 3188, 3191, 3187, 3190, 3189, 3194, 3189, 3196]
ch2 : [1603, 1610, 1607, 1605, 1590, 1590, 1605, 1610, 1607, 1607]
ch3 : [2791, 2780, 2773, 2782, 2773, 2781, 2783, 2787, 2784, 2779]
ch0 : [2428, 2440, 2502, 2482, 2078, 2406, 2321, 2289, 2416, 2437]
ch1 : [3191, 3190, 3195, 3190, 3199, 3184, 3195, 3196, 3192, 3195]
ch2 : [1604, 1606, 1607, 1591, 1599, 1612, 1611, 1607, 1611, 1607]
ch3 : [2774, 2773, 2767, 2772, 2765, 2767, 2770, 2777, 2775, 2764]
ch0 : [2463, 2491, 2389, 2332, 2423, 2397, 2478, 2415, 2324, 2298]
ch1 : [3192, 3193, 3193, 3200, 3192, 3194, 3195, 3187, 3198, 3193]
ch2 : [1608, 1599, 1596, 1611, 1627, 1603, 1613, 1609, 1615, 1610]
ch3 : [2762, 2764, 2753, 2763, 2764, 2762, 2761, 2759, 2751, 2760]
ch0 : [2315, 2051, 2423, 2454, 2438, 2465, 2312, 2292, 2483, 2483]
ch1 : [3195, 3192, 3193, 3191, 3194, 3187, 3198, 3193, 3196, 3193]
ch2 : [1595, 1602, 1617, 1615, 1616, 1610, 1616, 1611, 1603, 1598]
ch3 : [2757, 2758, 2761, 2754, 2756, 2748, 2744, 2743, 2741, 2738]
ch0 : [2360, 2322, 2358, 2306, 2401, 2249, 2396, 2484, 2053, 2290]
ch1 : [3191, 3195, 3194, 3193, 3191, 3196, 3193, 3196, 3197, 3194]
ch2 : [1605, 1616, 1624, 1618, 1613, 1611, 1613, 1600, 1604, 1615]
ch3 : [2738, 2745, 2738, 2746, 2742, 2741, 2736, 2732, 2731, 2738]
ch0 : [2371, 2381, 2482, 2384, 2130, 2469, 2415, 2235, 2410, 2465]
ch1 : [3194, 3200, 3191, 3197, 3194, 3192, 3194, 3193, 3197, 3193]
ch2 : [1619, 1615, 1617, 1612, 1614, 1603, 1601, 1611, 1618, 1615]
ch3 : [2731, 2737, 2736, 2734, 2736, 2730, 2749, 2738, 2732, 2730]
ch0 : [2420, 2368, 2304, 2442, 2487, 2070, 2119, 2176, 2420, 2464]
ch1 : [3195, 3192, 3195, 3197, 3194, 3197, 3190, 3191, 3191, 3195]
ch2 : [1620, 1615, 1615, 1606, 1600, 1602, 1619, 1618, 1623, 1616]
ch3 : [2749, 2731, 2728, 2721, 2729, 2726, 2735, 2728, 2722, 2708]
ch0 : [2384, 2363, 2479, 2434, 2191, 2369, 2322, 2318, 2394, 2303]
ch1 : [3193, 3191, 3189, 3194, 3195, 3195, 3192, 3190, 3196, 3187]
ch2 : [1618, 1617, 1608, 1599, 1624, 1623, 1623, 1620, 1625, 1617]
ch3 : [2706, 2714, 2723, 2727, 2715, 2715, 2716, 2713, 2712, 2715]
ch0 : [2264, 2464, 2211, 2270, 2410, 2276, 2318, 2380, 2430, 2461]
ch1 : [3196, 3187, 3200, 3195, 3196, 3193, 3197, 3201, 3193, 3194]
ch2 : [1619, 1602, 1611, 1624, 1622, 1622, 1619, 1619, 1619, 1611]
ch3 : [2713, 2704, 2713, 2720, 2712, 2709, 2705, 2712, 2711, 2711]
ch0 : [2378, 2233, 2311, 2312, 2373, 2404, 2342, 2311, 2464, 2383]
ch1 : [3192, 3193, 3195, 3193, 3200, 3189, 3195, 3195, 3192, 3194]
ch2 : [1607, 1617, 1626, 1619, 1626, 1625, 1616, 1620, 1606, 1608]
ch3 : [2716, 2705, 2695, 2694, 2704, 2708, 2705, 2693, 2704, 2695]
ch0 : [2116, 2226, 2431, 2446, 2431, 2353, 2429, 2412, 2349, 2355]
ch1 : [3197, 3194, 3191, 3195, 3191, 3196, 3190, 3195, 3196, 3195]
ch2 : [1624, 1624, 1626, 1623, 1611, 1608, 1618, 1609, 1621, 1626]
ch3 : [2693, 2697, 2696, 2695, 2697, 2700, 2697, 2692, 2687, 2699]
ch0 : [2353, 2398, 2381, 2275, 2285, 2445, 2320, 2325, 2421, 2327]
ch1 : [3192, 3195, 3190, 3191, 3196, 3192, 3193, 3193, 3190, 3196]
ch2 : [1622, 1625, 1630, 1625, 1626, 1613, 1613, 1624, 1630, 1627]
ch3 : [2707, 2704, 2698, 2687, 2697, 2693, 2694, 2704, 2698, 2693]
ch0 : [2347, 2163, 2328, 2455, 2408, 2130, 2437, 2331, 2192, 2270]
ch1 : [3196, 3190, 3193, 3195, 3193, 3194, 3195, 3193, 3194, 3189]
ch2 : [1626, 1627, 1625, 1624, 1619, 1620, 1630, 1631, 1631, 1628]
ch3 : [2685, 2695, 2692, 2690, 2690, 2691, 2692, 2689, 2690, 2689]
ch0 : [2383, 2314, 2448, 2442, 2136, 2271, 2340, 2421, 2351, 2299]
ch1 : [3193, 3201, 3195, 3195, 3200, 3192, 3200, 3191, 3195, 3191]
ch2 : [1633, 1635, 1618, 1613, 1629, 1626, 1632, 1633, 1630, 1625]
ch3 : [2685, 2689, 2681, 2686, 2689, 2687, 2692, 2691, 2684, 2679]
ch0 : [2439, 2384, 2170, 2369, 2362, 2229, 2358, 2374, 2249, 2448]
ch1 : [3193, 3192, 3195, 3194, 3195, 3194, 3192, 3201, 3190, 3192]
ch2 : [1629, 1616, 1626, 1634, 1630, 1632, 1634, 1627, 1629, 1620]
ch3 : [2683, 2689, 2687, 2692, 2680, 2688, 2686, 2686, 2685, 2684]
ch0 : [2417, 2190, 2198, 2313, 2433, 2326, 2344, 2443, 2337, 2106]
ch1 : [3193, 3191, 3196, 3193, 3192, 3196, 3196, 3196, 3187, 3199]
ch2 : [1612, 1630, 1636, 1637, 1631, 1626, 1633, 1631, 1616, 1626]
ch3 : [2680, 2689, 2687, 2687, 2684, 2692, 2679, 2679, 2685, 2684]
ch0 : [2260, 2273, 2297, 2383, 2358, 2310, 2383, 2368, 2198, 2345]
ch1 : [3193, 3193, 3197, 3192, 3192, 3196, 3194, 3193, 3189, 3196]
ch2 : [1636, 1634, 1632, 1633, 1631, 1630, 1621, 1615, 1633, 1637]
ch3 : [2686, 2684, 2681, 2676, 2681, 2680, 2672, 2668, 2681, 2680]
ch0 : [2425, 2343, 2304, 2436, 2251, 2228, 2253, 2251, 2424, 2353]
ch1 : [3191, 3194, 3194, 3196, 3197, 3191, 3195, 3196, 3195, 3194]
ch2 : [1632, 1626, 1631, 1623, 1615, 1631, 1636, 1637, 1633, 1630]
ch3 : [2675, 2680, 2672, 2677, 2670, 2671, 2675, 2668, 2670, 2673]
ch0 : [2299, 2422, 2356, 2123, 2256, 2322, 2272, 2321, 2331, 2297]
ch1 : [3190, 3189, 3195, 3193, 3197, 3194, 3187, 3194, 3193, 3192]
ch2 : [1632, 1629, 1619, 1622, 1637, 1635, 1648, 1631, 1631, 1629]
ch3 : [2678, 2665, 2669, 2659, 2658, 2663, 2682, 2675, 2673, 2665]
ch0 : [2390, 2259, 2180, 2351, 2379, 2341, 2299, 2393, 2370, 2355]
ch1 : [3208, 3194, 3195, 3191, 3188, 3193, 3192, 3187, 3194, 3196]
ch2 : [1632, 1615, 1633, 1636, 1640, 1625, 1631, 1629, 1629, 1617]
ch3 : [2670, 2663, 2667, 2665, 2667, 2665, 2662, 2664, 2673, 2675]
ch0 : [2184, 2210, 2176, 2396, 2336, 2317, 2327, 2434, 2219, 2120]
ch1 : [3202, 3192, 3199, 3194, 3194, 3189, 3195, 3192, 3195, 3198]
ch2 : [1622, 1639, 1645, 1635, 1632, 1628, 1632, 1622, 1609, 1620]
ch3 : [2682, 2667, 2660, 2668, 2668, 2668, 2670, 2670, 2668, 2670]
ch0 : [2275, 2384, 2372, 2295, 2297, 2331, 2309, 2094, 2256, 2346]
ch1 : [3197, 3193, 3196, 3196, 3189, 3204, 3196, 3195, 3194, 3195]
ch2 : [1637, 1634, 1636, 1627, 1631, 1631, 1618, 1624, 1633, 1634]
ch3 : [2676, 2665, 2663, 2669, 2682, 2667, 2665, 2671, 2672, 2668]
ch0 : [2358, 2330, 2340, 2271, 2420, 2270, 2133, 2279, 2288, 2412]
ch1 : [3193, 3190, 3193, 3185, 3195, 3192, 3195, 3195, 3192, 3198]
ch2 : [1637, 1627, 1637, 1625, 1626, 1618, 1632, 1638, 1645, 1634]
ch3 : [2663, 2663, 2662, 2655, 2672, 2663, 2673, 2671, 2668, 2659]
ch0 : [2347, 2254, 2396, 2373, 2216, 2356, 2284, 2335, 2312, 2311]
ch1 : [3191, 3196, 3192, 3193, 3192, 3179, 3193, 3194, 3193, 3187]
ch2 : [1629, 1632, 1633, 1624, 1622, 1634, 1639, 1638, 1631, 1635]
ch3 : [2657, 2663, 2668, 2661, 2669, 2669, 2667, 2666, 2668, 2665]
ch0 : [2254, 2424, 2427, 2102, 2242, 2277, 2372, 2318, 2276, 2278]
ch1 : [3204, 3193, 3192, 3197, 3197, 3196, 3193, 3197, 3191, 3197]
ch2 : [1632, 1628, 1619, 1626, 1642, 1624, 1649, 1634, 1634, 1635]
ch3 : [2668, 2669, 2668, 2668, 2673, 2673, 2669, 2661, 2658, 2670]
ch0 : [2387, 2283, 2330, 2340, 2233, 2137, 2316, 2379, 2425, 2276]
ch1 : [3193, 3190, 3196, 3191, 3198, 3196, 3203, 3192, 3193, 3195]
ch2 : [1627, 1621, 1637, 1639, 1640, 1640, 1638, 1641, 1627, 1621]
ch3 : [2670, 2676, 2682, 2669, 2666, 2663, 2665, 2668, 2667, 2660]
ch0 : [2069, 2129, 2257, 2369, 2358, 2283, 2274, 2383, 2246, 2216]
ch1 : [3196, 3191, 3194, 3187, 3195, 3194, 3199, 3193, 3200, 3197]
ch2 : [1637, 1636, 1639, 1638, 1638, 1639, 1636, 1625, 1621, 1640]
ch3 : [2660, 2663, 2663, 2669, 2658, 2659, 2657, 2656, 2664, 2660]
ch0 : [2174, 2376, 2347, 2259, 2418, 2263, 2182, 2227, 2306, 2299]
ch1 : [3192, 3207, 3195, 3197, 3195, 3191, 3196, 3195, 3196, 3193]
ch2 : [1637, 1637, 1638, 1638, 1629, 1628, 1643, 1642, 1639, 1643]
ch3 : [2669, 2653, 2647, 2665, 2671, 2669, 2670, 2664, 2654, 2656]
ch0 : [2269, 2297, 2407, 2313, 2030, 2209, 2248, 2218, 2354, 2351]
ch1 : [3192, 3193, 3192, 3196, 3195, 3197, 3201, 3193, 3194, 3192]
ch2 : [1640, 1640, 1636, 1627, 1636, 1647, 1645, 1641, 1637, 1637]
ch3 : [2662, 2670, 2663, 2665, 2662, 2663, 2660, 2663, 2666, 2669]
ch0 : [2234, 2333, 2325, 2101, 2380, 2333, 2277, 2215, 2098, 2387]
ch1 : [3194, 3188, 3193, 3189, 3199, 3193, 3194, 3191, 3194, 3190]
ch2 : [1634, 1627, 1625, 1637, 1643, 1641, 1638, 1640, 1639, 1636]
ch3 : [2660, 2660, 2665, 2662, 2664, 2670, 2664, 2665, 2658, 2647]
ch0 : [2376, 2037, 2162, 2276, 2187, 2241, 2211, 2242, 2296, 2189]
ch1 : [3194, 3196, 3199, 3201, 3194, 3196, 3186, 3191, 3197, 3196]
ch2 : [1623, 1618, 1643, 1638, 1622, 1633, 1635, 1640, 1627, 1629]
ch3 : [2647, 2663, 2668, 2666, 2663, 2657, 2651, 2656, 2660, 2669]
ch0 : [2168, 2331, 2333, 2248, 2124, 2368, 2387, 2211, 1911, 2210]
ch1 : [3191, 3195, 3194, 3196, 3198, 3196, 3188, 3190, 3196, 3196]
ch2 : [1639, 1644, 1644, 1650, 1639, 1639, 1638, 1622, 1633, 1649]
ch3 : [2661, 2654, 2656, 2660, 2673, 2671, 2660, 2659, 2660, 2662]
ch0 : [2308, 2373, 2314, 2230, 2227, 2210, 2233, 2199, 2280, 2303]
ch1 : [3195, 3195, 3197, 3197, 3195, 3194, 3195, 3195, 3196, 3197]
ch2 : [1646, 1643, 1638, 1639, 1639, 1628, 1626, 1642, 1643, 1642]
ch3 : [2670, 2660, 2652, 2658, 2663, 2679, 2669, 2671, 2668, 2664]
ch0 : [2275, 2225, 2203, 2373, 2388, 1965, 2129, 2146, 2311, 2198]
ch1 : [3192, 3194, 3195, 3193, 3193, 3198, 3195, 3191, 3197, 3197]
ch2 : [1642, 1640, 1642, 1645, 1620, 1633, 1645, 1650, 1642, 1643]
ch3 : [2668, 2664, 2662, 2651, 2665, 2668, 2664, 2663, 2669, 2657]
ch0 : [2388, 2332, 2403, 2192, 2094, 2034, 2310, 2376, 2267, 2248]
ch1 : [3195, 3200, 3191, 3197, 3192, 3192, 3190, 3190, 3195, 3192]
ch2 : [1635, 1641, 1633, 1629, 1655, 1647, 1646, 1644, 1643, 1646]
ch3 : [2662, 2655, 2657, 2656, 2660, 2656, 2661, 2663, 2657, 2658]
ch0 : [2239, 2157, 1920, 2155, 2353, 2301, 2191, 2071, 2155, 2380]
ch1 : [3193, 3201, 3200, 3200, 3194, 3193, 3205, 3200, 3191, 3193]
ch2 : [1638, 1628, 1635, 1648, 1651, 1647, 1644, 1641, 1647, 1635]
ch3 : [2655, 2656, 2656, 2658, 2655, 2655, 2649, 2662, 2659, 2661]
ch0 : [2355, 2213, 2077, 2175, 2360, 2204, 2064, 2301, 2378, 1912]
ch1 : [3191, 3196, 3196, 3194, 3196, 3197, 3196, 3192, 3192, 3191]
ch2 : [1633, 1633, 1648, 1648, 1650, 1646, 1645, 1646, 1633, 1634]
ch3 : [2665, 2663, 2659, 2652, 2655, 2657, 2646, 2656, 2658, 2655]
ch0 : [2329, 2319, 2255, 2184, 2154, 2375, 1946, 2129, 2387, 2383]
ch1 : [3198, 3181, 3196, 3193, 3197, 3192, 3197, 3197, 3192, 3200]
ch2 : [1652, 1635, 1646, 1646, 1646, 1629, 1638, 1650, 1650, 1650]
ch3 : [2663, 2657, 2656, 2658, 2658, 2660, 2658, 2659, 2674, 2665]
ch0 : [2219, 2188, 2075, 2311, 2334, 2173, 2297, 2286, 2367, 2304]
ch1 : [3193, 3191, 3197, 3193, 3197, 3204, 3193, 3192, 3189, 3196]
ch2 : [1650, 1653, 1645, 1639, 1634, 1652, 1651, 1645, 1648, 1649]
ch3 : [2659, 2660, 2660, 2659, 2665, 2666, 2661, 2654, 2657, 2649]
ch0 : [1950, 2069, 2339, 2063, 2153, 2223, 2211, 2323, 2237, 2226]
ch1 : [3196, 3199, 3194, 3196, 3206, 3193, 3199, 3196, 3193, 3195]
ch2 : [1646, 1662, 1635, 1638, 1656, 1654, 1652, 1649, 1652, 1648]
ch3 : [2662, 2665, 2660, 2655, 2662, 2659, 2657, 2650, 2653, 2653]
ch0 : [2377, 2213, 2061, 2222, 2228, 2250, 2271, 2204, 2152, 2225]
ch1 : [3189, 3185, 3196, 3193, 3197, 3194, 3191, 3197, 3184, 3195]
ch2 : [1643, 1630, 1650, 1650, 1654, 1649, 1653, 1651, 1652, 1641]
ch3 : [2650, 2652, 2653, 2665, 2659, 2655, 2653, 2653, 2657, 2653]
ch0 : [2109, 2145, 2304, 2255, 2231, 2181, 2214, 2368, 2253, 2038]
ch1 : [3196, 3195, 3198, 3190, 3193, 3193, 3191, 3195, 3191, 3196]
ch2 : [1637, 1649, 1660, 1652, 1651, 1659, 1651, 1639, 1641, 1643]
ch3 : [2654, 2661, 2661, 2663, 2655, 2663, 2664, 2660, 2663, 2664]
ch0 : [2210, 2251, 2224, 2220, 2283, 2210, 2204, 1961, 2124, 2234]
ch1 : [3199, 3194, 3196, 3191, 3190, 3198, 3196, 3196, 3197, 3194]
ch2 : [1652, 1643, 1653, 1652, 1650, 1650, 1641, 1639, 1655, 1657]
ch3 : [2665, 2662, 2650, 2656, 2660, 2645, 2659, 2658, 2664, 2663]
ch0 : [2246, 2310, 2201, 2203, 2358, 2236, 2038, 2208, 2220, 2240]
ch1 : [3197, 3194, 3194, 3197, 3193, 3197, 3195, 3197, 3191, 3179]
ch2 : [1662, 1652, 1650, 1651, 1646, 1639, 1643, 1654, 1650, 1652]
ch3 : [2651, 2657, 2647, 2659, 2659, 2660, 2662, 2661, 2663, 2660]
ch0 : [2228, 2218, 2161, 2340, 2182, 2088, 2200, 2240, 2263, 2198]
ch1 : [3195, 3194, 3197, 3195, 3196, 3196, 3194, 3192, 3196, 3194]
ch2 : [1649, 1641, 1656, 1645, 1623, 1657, 1660, 1646, 1655, 1650]
ch3 : [2662, 2662, 2663, 2660, 2660, 2665, 2663, 2664, 2676, 2665]
ch0 : [2206, 2358, 2274, 2045, 2185, 2227, 2233, 2255, 2204, 2177]
ch1 : [3191, 3187, 3191, 3195, 3195, 3197, 3192, 3193, 3200, 3196]
ch2 : [1654, 1642, 1642, 1648, 1657, 1656, 1654, 1655, 1655, 1657]
ch3 : [2663, 2667, 2669, 2669, 2669, 2669, 2667, 2666, 2669, 2670]
ch0 : [2360, 2213, 2087, 2221, 2253, 2300, 2218, 2240, 2364, 2305]
ch1 : [3194, 3196, 3197, 3189, 3196, 3202, 3195, 3194, 3198, 3197]
ch2 : [1633, 1629, 1656, 1659, 1657, 1659, 1656, 1654, 1651, 1640]
ch3 : [2664, 2666, 2671, 2673, 2671, 2670, 2669, 2667, 2671, 2671]
ch0 : [2229, 2245, 2302, 2224, 2222, 2366, 2299, 2018, 2188, 2253]
ch1 : [3193, 3193, 3193, 3191, 3196, 3195, 3191, 3194, 3177, 3196]
ch2 : [1660, 1659, 1652, 1653, 1654, 1651, 1646, 1651, 1658, 1663]
ch3 : [2694, 2680, 2682, 2675, 2681, 2683, 2687, 2687, 2688, 2688]
ch0 : [2215, 2256, 2194, 2176, 2351, 2284, 2066, 2202, 2241, 2321]
ch1 : [3191, 3191, 3194, 3192, 3197, 3194, 3192, 3196, 3191, 3193]
ch2 : [1656, 1655, 1655, 1655, 1649, 1637, 1654, 1658, 1656, 1656]
ch3 : [2681, 2689, 2692, 2690, 2690, 2693, 2692, 2698, 2696, 2697]
ch0 : [2266, 2232, 2336, 2333, 2023, 2187, 2248, 2253, 2277, 2248]
ch1 : [3195, 3192, 3191, 3193, 3202, 3192, 3199, 3195, 3194, 3193]
ch2 : [1660, 1658, 1652, 1642, 1647, 1661, 1656, 1655, 1651, 1655]
ch3 : [2691, 2691, 2701, 2694, 2702, 2702, 2690, 2704, 2704, 2701]
ch0 : [2219, 2359, 2304, 2106, 2242, 2295, 2367, 2284, 2253, 2348]
ch1 : [3195, 3196, 3190, 3196, 3196, 3190, 3196, 3196, 3193, 3191]
ch2 : [1650, 1643, 1632, 1653, 1653, 1652, 1649, 1646, 1652, 1649]
ch3 : [2701, 2699, 2700, 2711, 2704, 2706, 2702, 2697, 2697, 2701]
ch0 : [2359, 2048, 2235, 2298, 2283, 2307, 2269, 2233, 2392, 2260]
ch1 : [3198, 3197, 3194, 3191, 3190, 3197, 3197, 3187, 3187, 3197]
ch2 : [1634, 1637, 1651, 1646, 1647, 1647, 1643, 1645, 1636, 1629]
ch3 : [2705, 2707, 2708, 2702, 2704, 2702, 2701, 2704, 2700, 2707]
ch0 : [2108, 2242, 2263, 2363, 2279, 2229, 2310, 2364, 2042, 2206]
ch1 : [3196, 3193, 3196, 3198, 3204, 3196, 3202, 3195, 3190, 3197]
ch2 : [1648, 1650, 1649, 1660, 1645, 1643, 1644, 1631, 1637, 1648]
ch3 : [2708, 2709, 2710, 2706, 2704, 2705, 2705, 2705, 2710, 2708]
ch0 : [2246, 2222, 2276, 2230, 2222, 2360, 2263, 2039, 2210, 2258]
ch1 : [3191, 3193, 3204, 3191, 3194, 3191, 3195, 3196, 3203, 3194]
ch2 : [1652, 1646, 1645, 1643, 1643, 1641, 1626, 1648, 1650, 1649]
ch3 : [2711, 2709, 2702, 2710, 2706, 2707, 2707, 2711, 2713, 2711]
ch0 : [2344, 2245, 2218, 2239, 2337, 2116, 2202, 2273, 2258, 2292]
ch1 : [3201, 3195, 3196, 3194, 3182, 3197, 3203, 3192, 3197, 3193]
ch2 : [1645, 1643, 1646, 1642, 1635, 1632, 1646, 1638, 1646, 1645]
ch3 : [2711, 2708, 2707, 2706, 2711, 2716, 2712, 2707, 2700, 2713]
ch0 : [2227, 2226, 2381, 2293, 2050, 2215, 2271, 2374, 2267, 2252]
ch1 : [3196, 3196, 3193, 3191, 3195, 3195, 3191, 3194, 3196, 3197]
ch2 : [1644, 1647, 1636, 1625, 1642, 1646, 1649, 1644, 1639, 1642]
ch3 : [2713, 2717, 2712, 2714, 2718, 2715, 2715, 2717, 2702, 2713]
ch0 : [2268, 2369, 2167, 2215, 2290, 2290, 2292, 2283, 2286, 2397]
ch1 : [3184, 3195, 3192, 3194, 3193, 3195, 3195, 3193, 3197, 3193]
ch2 : [1642, 1627, 1629, 1644, 1649, 1642, 1629, 1640, 1643, 1636]
ch3 : [2714, 2715, 2720, 2718, 2722, 2719, 2718, 2716, 2729, 2719]
ch0 : [2294, 2064, 2264, 2310, 2371, 2323, 2292, 2258, 2398, 2244]
ch1 : [3191, 3196, 3194, 3195, 3200, 3192, 3195, 3192, 3187, 3196]
ch2 : [1628, 1633, 1645, 1642, 1642, 1642, 1638, 1642, 1626, 1630]
ch3 : [2716, 2718, 2724, 2726, 2719, 2711, 2717, 2722, 2725, 2726]
ch0 : [2214, 2286, 2289, 2288, 2274, 2260, 2407, 2302, 2062, 2245]
ch1 : [3193, 3194, 3190, 3190, 3193, 3196, 3193, 3194, 3196, 3197]
ch2 : [1640, 1645, 1641, 1644, 1635, 1639, 1635, 1624, 1637, 1644]
ch3 : [2725, 2724, 2724, 2723, 2724, 2737, 2724, 2722, 2729, 2730]
ch0 : [2289, 2335, 2321, 2251, 2250, 2378, 2305, 2207, 2286, 2278]
ch1 : [3186, 3193, 3194, 3193, 3190, 3191, 3195, 3191, 3195, 3193]
ch2 : [1641, 1639, 1637, 1636, 1635, 1630, 1642, 1640, 1640, 1638]
ch3 : [2727, 2728, 2723, 2728, 2724, 2730, 2729, 2730, 2729, 2729]
ch0 : [2318, 2283, 2264, 2399, 2320, 2027, 2235, 2279, 2268, 2316]
ch1 : [3196, 3195, 3193, 3190, 3190, 3195, 3191, 3196, 3197, 3197]
ch2 : [1639, 1641, 1639, 1636, 1620, 1633, 1642, 1639, 1639, 1639]
ch3 : [2729, 2727, 2728, 2716, 2729, 2730, 2733, 2730, 2725, 2728]
ch0 : [2259, 2226, 2396, 2336, 2194, 2265, 2280, 2284, 2282, 2270]
ch1 : [3192, 3195, 3191, 3197, 3193, 3195, 3195, 3191, 3193, 3191]
ch2 : [1637, 1634, 1630, 1623, 1640, 1641, 1638, 1640, 1622, 1644]
ch3 : [2729, 2723, 2730, 2734, 2735, 2736, 2733, 2732, 2732, 2733]
ch0 : [2404, 2356, 2002, 2233, 2294, 2290, 2329, 2254, 2256, 2389]
ch1 : [3194, 3194, 3196, 3197, 3189, 3197, 3191, 3187, 3196, 3193]
ch2 : [1635, 1629, 1636, 1636, 1642, 1637, 1637, 1636, 1642, 1626]
ch3 : [2734, 2736, 2732, 2737, 2738, 2736, 2731, 2732, 2736, 2734]
ch0 : [2317, 2186, 2291, 2302, 2294, 2275, 2257, 2394, 2336, 1968]
ch1 : [3193, 3197, 3194, 3187, 3191, 3187, 3197, 3194, 3191, 3209]
ch2 : [1623, 1638, 1642, 1638, 1640, 1638, 1635, 1639, 1623, 1631]
ch3 : [2738, 2745, 2736, 2741, 2736, 2736, 2736, 2739, 2734, 2741]
ch0 : [2185, 2289, 2296, 2315, 2248, 2253, 2346, 2305, 2170, 2274]
ch1 : [3196, 3194, 3191, 3198, 3195, 3194, 3194, 3197, 3197, 3197]
ch2 : [1652, 1642, 1639, 1641, 1639, 1640, 1630, 1625, 1638, 1644]
ch3 : [2744, 2744, 2743, 2740, 2738, 2740, 2741, 2744, 2744, 2742]
ch0 : [2284, 2307, 2295, 2255, 2398, 2329, 2005, 2240, 2294, 2305]
ch1 : [3193, 3196, 3191, 3191, 3188, 3195, 3198, 3197, 3192, 3192]
ch2 : [1639, 1639, 1642, 1639, 1637, 1621, 1630, 1642, 1642, 1635]
ch3 : [2740, 2740, 2741, 2739, 2744, 2737, 2741, 2745, 2748, 2744]
ch0 : [2343, 2264, 2264, 2403, 2347, 2170, 2269, 2288, 2311, 2302]
ch1 : [3192, 3198, 3191, 3196, 3195, 3195, 3193, 3189, 3200, 3193]
ch2 : [1631, 1636, 1638, 1626, 1638, 1634, 1644, 1639, 1651, 1636]
ch3 : [2743, 2744, 2739, 2745, 2744, 2748, 2744, 2745, 2745, 2744]
ch0 : [2244, 2276, 2348, 1949, 2207, 2293, 2304, 2329, 2276, 2261]
ch1 : [3193, 3196, 3198, 3197, 3197, 3191, 3193, 3197, 3196, 3194]
ch2 : [1636, 1636, 1622, 1624, 1638, 1637, 1636, 1635, 1632, 1646]
ch3 : [2743, 2748, 2746, 2745, 2746, 2748, 2751, 2749, 2744, 2743]
ch0 : [2401, 2301, 2147, 2281, 2313, 2335, 2309, 2268, 2255, 2322]
ch1 : [3194, 3194, 3200, 3194, 3197, 3196, 3195, 3194, 3190, 3197]
ch2 : [1637, 1621, 1634, 1645, 1638, 1636, 1636, 1626, 1634, 1620]
ch3 : [2745, 2751, 2746, 2751, 2744, 2745, 2746, 2748, 2752, 2745]
ch0 : [2006, 2227, 2306, 2323, 2378, 2280, 2281, 2413, 2362, 2162]
ch1 : [3191, 3197, 3200, 3191, 3195, 3193, 3193, 3190, 3192, 3188]
ch2 : [1623, 1636, 1636, 1630, 1630, 1629, 1631, 1626, 1621, 1632]
ch3 : [2744, 2752, 2750, 2743, 2744, 2747, 2748, 2750, 2750, 2751]
ch0 : [2297, 2322, 2344, 2306, 2274, 2260, 2372, 2053, 2225, 2306]
ch1 : [3194, 3195, 3194, 3182, 3192, 3192, 3194, 3205, 3193, 3192]
ch2 : [1636, 1637, 1636, 1635, 1634, 1636, 1615, 1621, 1639, 1640]
ch3 : [2750, 2747, 2752, 2747, 2750, 2750, 2745, 2744, 2750, 2753]
ch0 : [2340, 2369, 2305, 2300, 2426, 2380, 2186, 2294, 2328, 2346]
ch1 : [3189, 3190, 3200, 3195, 3191, 3192, 3199, 3192, 3197, 3187]
ch2 : [1631, 1641, 1635, 1635, 1642, 1620, 1634, 1642, 1639, 1636]
ch3 : [2756, 2747, 2749, 2748, 2748, 2757, 2754, 2756, 2745, 2758]
ch0 : [2328, 2276, 2249, 2394, 2114, 2226, 2314, 2336, 2384, 2295]
ch1 : [3193, 3195, 3194, 3197, 3195, 3192, 3207, 3197, 3193, 3194]
ch2 : [1635, 1635, 1640, 1620, 1622, 1637, 1641, 1637, 1634, 1633]
ch3 : [2740, 2754, 2754, 2755, 2749, 2758, 2756, 2758, 2752, 2760]
ch0 : [2313, 2415, 2353, 2158, 2290, 2328, 2354, 2333, 2297, 2269]
ch1 : [3198, 3185, 3187, 3195, 3190, 3190, 3196, 3190, 3194, 3195]
ch2 : [1638, 1628, 1616, 1632, 1643, 1638, 1641, 1636, 1647, 1637]
ch3 : [2747, 2755, 2760, 2761, 2757, 2758, 2744, 2758, 2757, 2757]
ch0 : [2149, 2291, 2329, 2365, 2340, 2301, 2260, 2400, 2289, 2211]
ch1 : [3194, 3191, 3192, 3192, 3195, 3190, 3203, 3194, 3191, 3195]
ch2 : [1628, 1638, 1640, 1640, 1633, 1636, 1640, 1629, 1624, 1640]
ch3 : [2758, 2761, 2763, 2760, 2761, 2758, 2761, 2758, 2752, 2764]
ch0 : [2306, 2336, 2370, 2326, 2324, 2426, 2392, 2153, 2300, 2334]
ch1 : [3194, 3196, 3191, 3193, 3193, 3192, 3194, 3192, 3195, 3197]
ch2 : [1633, 1646, 1639, 1635, 1639, 1629, 1625, 1631, 1640, 1641]
ch3 : [2761, 2761, 2767, 2758, 2770, 2758, 2763, 2762, 2766, 2759]
ch0 : [2339, 2328, 2310, 2278, 2432, 2292, 2192, 2314, 2331, 2385]
ch1 : [3189, 3200, 3193, 3196, 3187, 3192, 3192, 3196, 3194, 3193]
ch2 : [1644, 1639, 1633, 1633, 1627, 1617, 1639, 1647, 1646, 1637]
ch3 : [2765, 2763, 2760, 2760, 2762, 2759, 2764, 2766, 2764, 2760]
ch0 : [2320, 2327, 2431, 2414, 2130, 2287, 2333, 2307, 2347, 2311]
ch1 : [3194, 3188, 3204, 3187, 3196, 3191, 3194, 3195, 3193, 3195]
ch2 : [1636, 1635, 1633, 1623, 1631, 1633, 1642, 1639, 1631, 1634]
ch3 : [2759, 2758, 2760, 2755, 2763, 2763, 2775, 2761, 2765, 2762]
ch0 : [2263, 2439, 2338, 2190, 2298, 2327, 2407, 2312, 2314, 2431]
ch1 : [3191, 3193, 3195, 3191, 3197, 3181, 3190, 3194, 3197, 3191]
ch2 : [1636, 1626, 1618, 1637, 1640, 1636, 1641, 1629, 1635, 1633]
ch3 : [2762, 2757, 2765, 2766, 2777, 2766, 2763, 2760, 2759, 2763]
ch0 : [2398, 2132, 2295, 2335, 2327, 2340, 2307, 2268, 2426, 2304]
ch1 : [3193, 3200, 3195, 3193, 3192, 3194, 3190, 3197, 3192, 3204]
ch2 : [1622, 1626, 1639, 1636, 1637, 1641, 1628, 1636, 1629, 1618]
ch3 : [2768, 2768, 2769, 2767, 2765, 2764, 2764, 2769, 2765, 2764]
ch0 : [2169, 2295, 2337, 2372, 2328, 2303, 2426, 2370, 2111, 2284]
ch1 : [3198, 3197, 3195, 3192, 3190, 3190, 3195, 3195, 3197, 3193]
ch2 : [1637, 1637, 1637, 1638, 1624, 1633, 1632, 1620, 1629, 1639]
ch3 : [2769, 2769, 2767, 2763, 2764, 2763, 2768, 2768, 2772, 2769]
ch0 : [2318, 2329, 2335, 2295, 2284, 2430, 2349, 2164, 2291, 2353]
ch1 : [3196, 3191, 3193, 3193, 3193, 3207, 3191, 3191, 3192, 3197]
ch2 : [1641, 1637, 1636, 1635, 1636, 1626, 1620, 1636, 1643, 1639]
ch3 : [2768, 2766, 2766, 2766, 2777, 2764, 2764, 2767, 2774, 2767]
ch0 : [2413, 2344, 2289, 2428, 2396, 2105, 2275, 2329, 2316, 2344]
ch1 : [3192, 3190, 3196, 3191, 3191, 3196, 3193, 3196, 3191, 3194]
ch2 : [1638, 1633, 1635, 1636, 1629, 1626, 1638, 1643, 1640, 1632]
ch3 : [2781, 2765, 2766, 2767, 2769, 2770, 2770, 2771, 2768, 2768]
ch0 : [2336, 2279, 2436, 2316, 2147, 2307, 2353, 2418, 2332, 2300]
ch1 : [3202, 3195, 3204, 3194, 3206, 3194, 3194, 3191, 3197, 3182]
ch2 : [1639, 1634, 1629, 1606, 1640, 1639, 1619, 1641, 1631, 1637]
ch3 : [2756, 2767, 2769, 2769, 2772, 2774, 2770, 2769, 2768, 2767]
ch0 : [2422, 2386, 2097, 2271, 2328, 2341, 2359, 2323, 2298, 2434]
ch1 : [3191, 3193, 3196, 3196, 3195, 3193, 3192, 3194, 3196, 3194]
ch2 : [1636, 1621, 1629, 1640, 1650, 1641, 1636, 1639, 1636, 1630]
ch3 : [2773, 2767, 2771, 2773, 2773, 2771, 2772, 2771, 2769, 2771]
ch0 : [2418, 2152, 2303, 2338, 2412, 2347, 2299, 2373, 2390, 2134]
ch1 : [3192, 3196, 3195, 3192, 3194, 3194, 3196, 3187, 3195, 3194]
ch2 : [1621, 1637, 1641, 1641, 1640, 1642, 1635, 1634, 1630, 1629]
ch3 : [2775, 2775, 2772, 2775, 2774, 2770, 2781, 2783, 2768, 2775]
ch0 : [2297, 2346, 2334, 2351, 2327, 2306, 2433, 2401, 2167, 2327]
ch1 : [3200, 3195, 3193, 3200, 3200, 3196, 3194, 3192, 3206, 3192]
ch2 : [1632, 1642, 1647, 1636, 1636, 1637, 1629, 1626, 1636, 1644]
ch3 : [2767, 2776, 2772, 2773, 2769, 2777, 2785, 2770, 2776, 2774]
ch0 : [2355, 2432, 2354, 2321, 2345, 2395, 2206, 2290, 2345, 2349]
ch1 : [3200, 3195, 3194, 3194, 3193, 3192, 3193, 3191, 3193, 3208]
ch2 : [1644, 1637, 1636, 1635, 1634, 1624, 1619, 1641, 1639, 1637]
ch3 : [2777, 2776, 2772, 2771, 2778, 2774, 2776, 2776, 2775, 2776]
ch0 : [2373, 2348, 2335, 2443, 2312, 2144, 2313, 2366, 2442, 2364]
ch1 : [3192, 3195, 3194, 3196, 3203, 3191, 3191, 3187, 3183, 3192]
ch2 : [1643, 1637, 1637, 1628, 1622, 1634, 1638, 1636, 1639, 1632]
ch3 : [2771, 2771, 2777, 2775, 2772, 2775, 2781, 2777, 2775, 2775]
ch0 : [2342, 2325, 2448, 2239, 2281, 2351, 2340, 2368, 2344, 2336]
ch1 : [3195, 3193, 3194, 3204, 3193, 3197, 3193, 3194, 3187, 3198]
ch2 : [1631, 1630, 1624, 1627, 1635, 1639, 1634, 1631, 1634, 1628]
ch3 : [2774, 2778, 2776, 2780, 2779, 2783, 2778, 2779, 2767, 2777]
ch0 : [2445, 2373, 2113, 2305, 2350, 2444, 2378, 2335, 2313, 2432]
ch1 : [3192, 3196, 3191, 3194, 3189, 3195, 3192, 3197, 3195, 3191]
ch2 : [1613, 1623, 1631, 1642, 1636, 1635, 1634, 1632, 1630, 1625]
ch3 : [2780, 2778, 2778, 2779, 2784, 2779, 2770, 2778, 2771, 2779]
ch0 : [2343, 2257, 2355, 2349, 2369, 2331, 2341, 2450, 2407, 2125]
ch1 : [3191, 3191, 3193, 3200, 3193, 3194, 3191, 3183, 3192, 3200]
ch2 : [1623, 1633, 1637, 1639, 1636, 1633, 1637, 1627, 1615, 1634]
ch3 : [2784, 2785, 2780, 2781, 2766, 2780, 2779, 2777, 2781, 2780]
ch0 : [2313, 2354, 2418, 2380, 2338, 2319, 2450, 2375, 2277, 2347]
ch1 : [3197, 3194, 3194, 3196, 3195, 3194, 3190, 3190, 3193, 3192]
ch2 : [1638, 1637, 1634, 1632, 1633, 1634, 1621, 1625, 1628, 1637]
ch3 : [2785, 2782, 2782, 2780, 2777, 2778, 2781, 2783, 2786, 2783]
ch0 : [2364, 2369, 2358, 2353, 2447, 2403, 2104, 2311, 2367, 2379]
ch1 : [3190, 3193, 3193, 3197, 3197, 3192, 3194, 3193, 3205, 3194]
ch2 : [1640, 1636, 1636, 1633, 1629, 1618, 1614, 1636, 1638, 1637]
ch3 : [2781, 2780, 2794, 2784, 2781, 2768, 2788, 2797, 2781, 2795]
ch0 : [2387, 2325, 2323, 2449, 2388, 2258, 2346, 2353, 2374, 2362]
ch1 : [3192, 3185, 3191, 3194, 3195, 3192, 3187, 3195, 3192, 3193]
ch2 : [1642, 1627, 1636, 1631, 1621, 1638, 1638, 1641, 1644, 1637]
ch3 : [2780, 2776, 2779, 2783, 2783, 2790, 2780, 2781, 2785, 2785]
ch0 : [2357, 2453, 2363, 2089, 2296, 2353, 2372, 2392, 2336, 2325]
ch1 : [3194, 3194, 3194, 3196, 3194, 3196, 3192, 3201, 3193, 3194]
ch2 : [1632, 1632, 1618, 1635, 1639, 1638, 1635, 1633, 1632, 1634]
ch3 : [2786, 2784, 2780, 2784, 2789, 2789, 2785, 2776, 2776, 2782]
ch0 : [2458, 2383, 2258, 2350, 2359, 2378, 2373, 2346, 2450, 2410]
ch1 : [3192, 3187, 3197, 3194, 3193, 3197, 3193, 3194, 3195, 3193]
ch2 : [1623, 1620, 1634, 1641, 1639, 1636, 1636, 1631, 1633, 1620]
ch3 : [2782, 2786, 2786, 2785, 2784, 2775, 2783, 2779, 2798, 2781]
ch0 : [2343, 2350, 2383, 2353, 2333, 2448, 2383, 2060, 2285, 2365]
ch1 : [3193, 3192, 3194, 3195, 3193, 3193, 3191, 3195, 3204, 3193]
ch2 : [1638, 1640, 1637, 1636, 1634, 1634, 1621, 1621, 1645, 1637]
ch3 : [2782, 2784, 2784, 2782, 2783, 2786, 2783, 2782, 2787, 2787]
ch0 : [2385, 2421, 2344, 2337, 2454, 2379, 2252, 2354, 2354, 2375]
ch1 : [3196, 3193, 3193, 3191, 3191, 3194, 3193, 3192, 3192, 3196]
ch2 : [1637, 1633, 1631, 1637, 1622, 1621, 1630, 1634, 1634, 1636]
ch3 : [2789, 2782, 2783, 2784, 2784, 2788, 2788, 2785, 2786, 2788]
ch0 : [2359, 2335, 2451, 2384, 2061, 2281, 2355, 2356, 2380, 2332]
ch1 : [3196, 3193, 3195, 3194, 3196, 3193, 3194, 3190, 3187, 3182]
ch2 : [1634, 1617, 1645, 1618, 1619, 1636, 1635, 1636, 1630, 1632]
ch3 : [2788, 2786, 2783, 2784, 2783, 2789, 2787, 2783, 2787, 2778]
ch0 : [2339, 2456, 2424, 2252, 2350, 2359, 2392, 2373, 2308, 2351]
ch1 : [3196, 3187, 3194, 3193, 3197, 3194, 3195, 3194, 3191, 3195]
ch2 : [1635, 1626, 1623, 1633, 1640, 1641, 1634, 1618, 1634, 1633]
ch3 : [2786, 2788, 2789, 2787, 2789, 2788, 2798, 2787, 2789, 2787]
ch0 : [2458, 2045, 2283, 2352, 2366, 2407, 2334, 2343, 2460, 2417]
ch1 : [3191, 3194, 3193, 3196, 3193, 3191, 3193, 3194, 3191, 3190]
ch2 : [1619, 1628, 1638, 1638, 1636, 1634, 1637, 1634, 1627, 1630]
ch3 : [2789, 2786, 2788, 2790, 2783, 2779, 2786, 2783, 2786, 2788]
ch0 : [2240, 2349, 2362, 2389, 2368, 2334, 2306, 2432, 2062, 2283]
ch1 : [3197, 3195, 3198, 3192, 3191, 3197, 3190, 3187, 3197, 3193]
ch2 : [1637, 1639, 1629, 1638, 1634, 1635, 1638, 1618, 1624, 1639]
ch3 : [2793, 2790, 2786, 2782, 2789, 2785, 2790, 2771, 2783, 2788]
ch0 : [2361, 2376, 2437, 2333, 2346, 2465, 2409, 2229, 2349, 2373]
ch1 : [3193, 3186, 3191, 3190, 3195, 3191, 3196, 3196, 3190, 3193]
ch2 : [1639, 1636, 1637, 1630, 1633, 1623, 1619, 1632, 1633, 1622]
ch3 : [2792, 2789, 2785, 2775, 2785, 2782, 2790, 2792, 2788, 2791]
ch0 : [2399, 2375, 2333, 2322, 2439, 2096, 2279, 2357, 2369, 2395]
ch1 : [3196, 3191, 3196, 3191, 3197, 3194, 3196, 3193, 3194, 3192]
ch2 : [1634, 1628, 1637, 1630, 1619, 1619, 1638, 1636, 1639, 1636]
ch3 : [2791, 2784, 2788, 2791, 2779, 2782, 2792, 2794, 2794, 2786]
ch0 : [2342, 2356, 2459, 2415, 2210, 2358, 2366, 2388, 2369, 2325]
ch1 : [3196, 3196, 3181, 3191, 3194, 3194, 3192, 3187, 3192, 3187]
ch2 : [1637, 1635, 1625, 1633, 1630, 1638, 1639, 1634, 1628, 1628]
ch3 : [2788, 2786, 2788, 2790, 2797, 2789, 2791, 2789, 2785, 2792]
ch0 : [2292, 2463, 2150, 2267, 2350, 2380, 2418, 2336, 2361, 2460]
ch1 : [3190, 3194, 3197, 3196, 3182, 3195, 3193, 3197, 3192, 3191]
ch2 : [1635, 1619, 1613, 1640, 1638, 1635, 1633, 1634, 1629, 1627]
ch3 : [2783, 2788, 2783, 2793, 2800, 2792, 2789, 2792, 2772, 2784]
ch0 : [2238, 2363, 2388, 2423, 2362, 2356, 2462, 2453, 2191, 2347]
ch1 : [3193, 3193, 3193, 3191, 3196, 3197, 3207, 3193, 3197, 3191]
ch2 : [1639, 1639, 1636, 1635, 1635, 1633, 1630, 1622, 1634, 1644]
ch3 : [2792, 2792, 2792, 2791, 2788, 2787, 2788, 2791, 2795, 2792]
ch0 : [2371, 2382, 2384, 2334, 2303, 2405, 2250, 2261, 2356, 2380]
ch1 : [3194, 3189, 3192, 3182, 3197, 3194, 3195, 3197, 3195, 3192]
ch2 : [1640, 1639, 1635, 1642, 1634, 1622, 1617, 1639, 1638, 1620]
ch3 : [2791, 2791, 2788, 2790, 2791, 2789, 2789, 2794, 2795, 2796]
ch0 : [2436, 2356, 2343, 2459, 2377, 2181, 2339, 2370, 2388, 2386]
ch1 : [3192, 3192, 3191, 3192, 3193, 3195, 3193, 3193, 3191, 3190]
ch2 : [1629, 1632, 1633, 1627, 1621, 1629, 1637, 1636, 1650, 1639]
ch3 : [2788, 2787, 2789, 2788, 2792, 2793, 2798, 2792, 2795, 2791]
ch0 : [2323, 2299, 2456, 2398, 2248, 2343, 2370, 2444, 2349, 2356]
ch1 : [3196, 3191, 3194, 3192, 3196, 3194, 3187, 3193, 3195, 3193]
ch2 : [1632, 1627, 1621, 1613, 1637, 1639, 1638, 1640, 1634, 1629]
ch3 : [2791, 2791, 2791, 2789, 2793, 2796, 2797, 2788, 2789, 2788]
ch0 : [2464, 2395, 2184, 2332, 2361, 2363, 2370, 2369, 2309, 2461]
ch1 : [3191, 3196, 3199, 3197, 3193, 3200, 3191, 3197, 3183, 3193]
ch2 : [1632, 1622, 1629, 1639, 1640, 1637, 1639, 1636, 1636, 1628]
ch3 : [2792, 2793, 2794, 2797, 2793, 2789, 2791, 2789, 2783, 2791]
ch0 : [2405, 2248, 2349, 2367, 2429, 2362, 2354, 2461, 2421, 2168]
ch1 : [3193, 3195, 3181, 3193, 3195, 3193, 3196, 3189, 3193, 3191]
ch2 : [1622, 1642, 1641, 1638, 1638, 1636, 1642, 1632, 1628, 1632]
ch3 : [2789, 2795, 2797, 2795, 2792, 2793, 2791, 2792, 2792, 2791]
ch0 : [2331, 2364, 2372, 2380, 2352, 2302, 2460, 2401, 2213, 2344]
ch1 : [3199, 3193, 3193, 3194, 3195, 3190, 3187, 3191, 3196, 3194]
ch2 : [1638, 1636, 1638, 1640, 1638, 1640, 1624, 1623, 1637, 1645]
ch3 : [2793, 2790, 2791, 2790, 2791, 2796, 2791, 2792, 2796, 2795]
ch0 : [2385, 2450, 2366, 2341, 2462, 2458, 2160, 2324, 2367, 2364]
ch1 : [3195, 3194, 3192, 3190, 3191, 3194, 3196, 3197, 3196, 3200]
ch2 : [1641, 1637, 1632, 1634, 1649, 1622, 1627, 1639, 1622, 1639]
ch3 : [2797, 2788, 2791, 2802, 2794, 2800, 2800, 2797, 2797, 2800]
ch0 : [2386, 2346, 2325, 2470, 2334, 2218, 2342, 2380, 2450, 2384]
ch1 : [3197, 3195, 3195, 3195, 3195, 3198, 3193, 3186, 3194, 3194]
ch2 : [1636, 1631, 1637, 1627, 1618, 1635, 1640, 1639, 1638, 1631]
ch3 : [2794, 2794, 2789, 2793, 2792, 2796, 2801, 2797, 2795, 2794]
ch0 : [2346, 2461, 2443, 2147, 2340, 2378, 2351, 2396, 2365, 2346]
ch1 : [3196, 3195, 3193, 3194, 3201, 3193, 3192, 3187, 3196, 3197]
ch2 : [1645, 1640, 1623, 1629, 1638, 1641, 1641, 1636, 1641, 1634]
ch3 : [2796, 2794, 2800, 2798, 2801, 2795, 2796, 2795, 2794, 2805]
ch0 : [2165, 2330, 2363, 2374, 2391, 2356, 2350, 2469, 2384, 2173]
ch1 : [3193, 3190, 3192, 3192, 3195, 3197, 3193, 3192, 3204, 3193]
ch2 : [1623, 1639, 1640, 1622, 1639, 1633, 1634, 1627, 1623, 1636]
ch3 : [2798, 2794, 2796, 2799, 2781, 2796, 2795, 2795, 2795, 2796]
ch0 : [2332, 2384, 2456, 2388, 2353, 2395, 2453, 2190, 2313, 2392]
ch1 : [3198, 3191, 3193, 3197, 3190, 3190, 3196, 3195, 3197, 3196]
ch2 : [1640, 1638, 1637, 1637, 1636, 1635, 1625, 1626, 1639, 1644]
ch3 : [2799, 2800, 2797, 2793, 2794, 2796, 2795, 2801, 2800, 2799]
ch0 : [2373, 2385, 2357, 2346, 2461, 2445, 2172, 2343, 2382, 2456]
ch1 : [3192, 3196, 3192, 3195, 3200, 3193, 3200, 3193, 3192, 3193]
ch2 : [1635, 1635, 1635, 1635, 1627, 1619, 1633, 1639, 1637, 1638]
ch3 : [2795, 2795, 2795, 2799, 2795, 2796, 2795, 2801, 2801, 2801]
ch0 : [2363, 2365, 2353, 2455, 2236, 2311, 2383, 2367, 2404, 2356]
ch1 : [3188, 3194, 3205, 3196, 3197, 3194, 3193, 3194, 3194, 3193]
ch2 : [1633, 1631, 1635, 1621, 1622, 1640, 1637, 1632, 1636, 1636]
ch3 : [2794, 2795, 2797, 2799, 2804, 2798, 2795, 2798, 2792, 2799]
ch0 : [2356, 2466, 2425, 2158, 2342, 2388, 2455, 2402, 2346, 2357]
ch1 : [3191, 3196, 3193, 3197, 3197, 3193, 3196, 3193, 3195, 3193]
ch2 : [1636, 1630, 1615, 1633, 1639, 1637, 1634, 1636, 1633, 1638]
ch3 : [2797, 2801, 2793, 2797, 2800, 2802, 2803, 2795, 2795, 2798]
ch0 : [2431, 2299, 2316, 2380, 2364, 2414, 2366, 2365, 2467, 2323]
ch1 : [3191, 3196, 3191, 3193, 3196, 3193, 3196, 3196, 3194, 3194]
ch2 : [1627, 1617, 1639, 1637, 1635, 1635, 1634, 1634, 1633, 1623]
ch3 : [2796, 2800, 2801, 2799, 2801, 2797, 2796, 2797, 2797, 2797]
ch0 : [2162, 2343, 2384, 2460, 2402, 2343, 2358, 2471, 2357, 2298]
ch1 : [3193, 3197, 3195, 3195, 3187, 3192, 3190, 3204, 3195, 3191]
ch2 : [1632, 1638, 1634, 1636, 1636, 1645, 1634, 1627, 1620, 1637]
ch3 : [2801, 2799, 2802, 2808, 2795, 2798, 2797, 2798, 2801, 2802]
ch0 : [2375, 2386, 2401, 2379, 2387, 2469, 2410, 2122, 2336, 2383]
ch1 : [3193, 3189, 3189, 3194, 3196, 3187, 3195, 3196, 3197, 3198]
ch2 : [1639, 1642, 1637, 1617, 1635, 1630, 1618, 1633, 1640, 1639]
ch3 : [2796, 2799, 2798, 2797, 2800, 2803, 2796, 2804, 2801, 2800]
ch0 : [2398, 2411, 2355, 2341, 2465, 2390, 2293, 2383, 2374, 2384]
ch1 : [3192, 3192, 3204, 3196, 3198, 3193, 3191, 3196, 3192, 3182]
ch2 : [1637, 1636, 1633, 1638, 1622, 1619, 1638, 1640, 1631, 1634]
ch3 : [2802, 2796, 2796, 2797, 2799, 2803, 2806, 2800, 2803, 2796]
ch0 : [2374, 2359, 2463, 2381, 2082, 2324, 2385, 2388, 2411, 2350]
ch1 : [3193, 3195, 3200, 3187, 3195, 3196, 3181, 3204, 3193, 3193]
ch2 : [1636, 1635, 1636, 1621, 1614, 1638, 1638, 1637, 1633, 1638]
ch3 : [2800, 2802, 2800, 2797, 2801, 2805, 2803, 2802, 2795, 2799]
ch0 : [2437, 2110, 2327, 2375, 2387, 2404, 2358, 2350, 2447, 2424]
ch1 : [3191, 3193, 3192, 3195, 3192, 3195, 3196, 3195, 3189, 3194]
ch2 : [1617, 1629, 1638, 1636, 1634, 1636, 1635, 1633, 1613, 1619]
ch3 : [2799, 2802, 2803, 2799, 2803, 2800, 2800, 2798, 2799, 2805]
ch0 : [2275, 2401, 2372, 2412, 2385, 2358, 2463, 2380, 2087, 2307]
ch1 : [3196, 3195, 3193, 3190, 3194, 3193, 3193, 3193, 3194, 3187]
ch2 : [1635, 1638, 1637, 1635, 1635, 1639, 1634, 1618, 1626, 1640]
ch3 : [2804, 2798, 2801, 2803, 2803, 2802, 2802, 2799, 2801, 2814]
ch0 : [2384, 2399, 2422, 2352, 2351, 2470, 2452, 2265, 2372, 2404]
ch1 : [3188, 3191, 3193, 3196, 3193, 3197, 3197, 3192, 3193, 3196]
ch2 : [1640, 1635, 1633, 1631, 1639, 1622, 1620, 1627, 1646, 1637]
ch3 : [2816, 2803, 2797, 2797, 2799, 2804, 2809, 2804, 2803, 2804]
ch0 : [2404, 2366, 2366, 2431, 2416, 2062, 2309, 2381, 2384, 2416]
ch1 : [3196, 3195, 3194, 3186, 3189, 3201, 3195, 3191, 3192, 3192]
ch2 : [1637, 1630, 1628, 1629, 1619, 1625, 1640, 1635, 1635, 1638]
ch3 : [2801, 2802, 2803, 2804, 2803, 2804, 2803, 2802, 2805, 2799]
ch0 : [2379, 2352, 2465, 2407, 2249, 2360, 2381, 2409, 2392, 2339]
ch1 : [3191, 3193, 3194, 3196, 3191, 3191, 3195, 3191, 3193, 3196]
ch2 : [1632, 1633, 1634, 1622, 1629, 1645, 1636, 1639, 1630, 1634]
ch3 : [2788, 2799, 2802, 2805, 2802, 2804, 2802, 2804, 2801, 2809]
ch0 : [2342, 2465, 2063, 2294, 2369, 2391, 2412, 2358, 2362, 2471]
ch1 : [3192, 3193, 3195, 3196, 3194, 3191, 3193, 3200, 3197, 3202]
ch2 : [1634, 1613, 1623, 1639, 1635, 1641, 1633, 1629, 1636, 1627]
ch3 : [2803, 2800, 2799, 2816, 2810, 2803, 2799, 2800, 2799, 2800]
ch0 : [2396, 2245, 2358, 2396, 2391, 2368, 2326, 2323, 2440, 2068]
ch1 : [3191, 3193, 3193, 3191, 3190, 3195, 3197, 3196, 3200, 3195]
ch2 : [1612, 1629, 1645, 1635, 1637, 1635, 1635, 1642, 1615, 1622]
ch3 : [2804, 2803, 2804, 2803, 2804, 2800, 2804, 2808, 2804, 2801]
ch0 : [2291, 2380, 2388, 2439, 2351, 2370, 2453, 2386, 2231, 2377]
ch1 : [3192, 3196, 3191, 3196, 3187, 3191, 3197, 3192, 3192, 3190]
ch2 : [1638, 1642, 1626, 1633, 1630, 1637, 1624, 1621, 1630, 1625]
ch3 : [2800, 2805, 2803, 2801, 2801, 2799, 2799, 2802, 2804, 2803]
ch0 : [2370, 2412, 2400, 2332, 2309, 2456, 2126, 2262, 2371, 2399]
ch1 : [3191, 3191, 3196, 3198, 3191, 3194, 3197, 3192, 3187, 3204]
ch2 : [1643, 1640, 1636, 1633, 1633, 1620, 1621, 1642, 1637, 1641]
ch3 : [2811, 2815, 2799, 2804, 2804, 2801, 2795, 2805, 2804, 2805]
ch0 : [2442, 2378, 2404, 2470, 2419, 2256, 2359, 2403, 2404, 2397]
ch1 : [3196, 3193, 3196, 3194, 3192, 3193, 3193, 3190, 3192, 3200]
ch2 : [1638, 1625, 1632, 1627, 1624, 1633, 1638, 1639, 1636, 1636]
ch3 : [2800, 2800, 2801, 2802, 2799, 2807, 2804, 2802, 2815, 2801]
ch0 : [2345, 2314, 2419, 2268, 2297, 2394, 2426, 2442, 2371, 2392]
ch1 : [3179, 3194, 3192, 3196, 3191, 3191, 3195, 3192, 3191, 3188]
ch2 : [1638, 1636, 1620, 1621, 1638, 1639, 1634, 1639, 1636, 1639]
ch3 : [2806, 2800, 2803, 2801, 2802, 2809, 2803, 2804, 2800, 2800]
ch0 : [2475, 2424, 2197, 2355, 2393, 2409, 2429, 2352, 2260, 2456]
ch1 : [3191, 3193, 3195, 3195, 3195, 3192, 3191, 3196, 3192, 3196]
ch2 : [1628, 1626, 1632, 1639, 1639, 1637, 1636, 1635, 1641, 1624]
ch3 : [2800, 2807, 2814, 2803, 2797, 2803, 2795, 2793, 2801, 2800]
ch0 : [2273, 2407, 2478, 2478, 2461, 2252, 2181, 2468, 2478, 2273]
ch1 : [3196, 3193, 3195, 3196, 3193, 3192, 3194, 3193, 3196, 3195]
ch2 : [1625, 1641, 1641, 1638, 1636, 1629, 1633, 1630, 1630, 1636]
ch3 : [2803, 2804, 2799, 2802, 2795, 2786, 2789, 2800, 2797, 2796]
ch0 : [2453, 2429, 2378, 2303, 2236, 2265, 2431, 2412, 2286, 2410]
ch1 : [3188, 3191, 3191, 3191, 3195, 3178, 3195, 3190, 3197, 3188]
ch2 : [1639, 1638, 1634, 1636, 1634, 1635, 1626, 1617, 1636, 1631]
ch3 : [2799, 2794, 2786, 2799, 2793, 2790, 2788, 2785, 2799, 2796]
ch0 : [2384, 2464, 2329, 2307, 2469, 2429, 2276, 2445, 2329, 2315]
ch1 : [3192, 3194, 3193, 3196, 3191, 3191, 3194, 3189, 3196, 3196]
ch2 : [1636, 1630, 1629, 1635, 1630, 1617, 1630, 1633, 1632, 1634]
ch3 : [2797, 2793, 2787, 2783, 2798, 2800, 2806, 2799, 2801, 2808]
ch0 : [2437, 2385, 2310, 2409, 2269, 2280, 2426, 2421, 2471, 2457]
ch1 : [3187, 3196, 3198, 3191, 3189, 3193, 3203, 3195, 3191, 3196]
ch2 : [1635, 1631, 1632, 1619, 1615, 1636, 1638, 1634, 1639, 1631]
ch3 : [2799, 2793, 2803, 2808, 2804, 2805, 2800, 2804, 2794, 2795]
ch0 : [2465, 2475, 2245, 2190, 2399, 2435, 2367, 2375, 2478, 2420]
ch1 : [3193, 3197, 3198, 3196, 3193, 3194, 3192, 3191, 3192, 3193]
ch2 : [1635, 1630, 1623, 1631, 1640, 1635, 1629, 1634, 1634, 1620]
ch3 : [2791, 2792, 2800, 2801, 2790, 2789, 2799, 2797, 2797, 2795]
ch0 : [2425, 2235, 2008, 2247, 2364, 2465, 2464, 2364, 2453, 2413]
ch1 : [3194, 3196, 3183, 3197, 3193, 3193, 3196, 3193, 3182, 3191]
ch2 : [1619, 1620, 1634, 1638, 1640, 1635, 1630, 1631, 1628, 1624]
ch3 : [2783, 2790, 2799, 2797, 2797, 2793, 2792, 2792, 2795, 2805]
ch0 : [2168, 2423, 2356, 2344, 2320, 2298, 2317, 2470, 2411, 2284]
ch1 : [3194, 3201, 3191, 3194, 3190, 3196, 3197, 3192, 3196, 3191]
ch2 : [1609, 1635, 1631, 1634, 1622, 1641, 1630, 1616, 1613, 1633]
ch3 : [2807, 2797, 2798, 2797, 2795, 2796, 2802, 2802, 2796, 2799]
ch0 : [2394, 2382, 2399, 2220, 2276, 2455, 2471, 2178, 2243, 2255]
ch1 : [3195, 3192, 3191, 3192, 3200, 3190, 3207, 3197, 3194, 3196]
ch2 : [1635, 1631, 1631, 1628, 1632, 1627, 1618, 1619, 1635, 1635]
ch3 : [2795, 2789, 2788, 2793, 2793, 2798, 2801, 2792, 2793, 2788]
ch0 : [2472, 2304, 2360, 2385, 2279, 2350, 2428, 2385, 2240, 2311]
ch1 : [3196, 3197, 3197, 3191, 3191, 3193, 3196, 3192, 3196, 3192]
ch2 : [1632, 1634, 1633, 1616, 1628, 1637, 1634, 1637, 1636, 1638]
ch3 : [2782, 2789, 2792, 2782, 2783, 2784, 2780, 2779, 2780, 2788]
ch0 : [2251, 2346, 2466, 2113, 2368, 2378, 2437, 2341, 2313, 2417]
ch1 : [3196, 3196, 3192, 3199, 3197, 3196, 3193, 3194, 3193, 3195]
ch2 : [1634, 1627, 1619, 1628, 1642, 1642, 1635, 1635, 1637, 1643]
ch3 : [2786, 2781, 2776, 2784, 2781, 2770, 2771, 2768, 2768, 2775]
ch0 : [2351, 2115, 2439, 2453, 2454, 2258, 2073, 2351, 2470, 2464]
ch1 : [3191, 3195, 3192, 3196, 3194, 3199, 3196, 3193, 3193, 3194]
ch2 : [1627, 1629, 1634, 1644, 1642, 1640, 1638, 1644, 1633, 1624]
ch3 : [2774, 2771, 2772, 2769, 2764, 2763, 2764, 2752, 2754, 2761]
ch0 : [2187, 2339, 2319, 2356, 2265, 2358, 2320, 2430, 2208, 2262]
ch1 : [3193, 3194, 3194, 3197, 3191, 3195, 3200, 3195, 3195, 3195]
ch2 : [1644, 1652, 1643, 1640, 1641, 1640, 1641, 1630, 1631, 1642]
ch3 : [2756, 2763, 2760, 2752, 2740, 2744, 2750, 2760, 2757, 2750]
ch0 : [2320, 2314, 2316, 2268, 2286, 2429, 2362, 2116, 2286, 2321]
ch1 : [3191, 3191, 3194, 3192, 3188, 3194, 3193, 3197, 3192, 3197]
ch2 : [1648, 1644, 1643, 1641, 1642, 1638, 1628, 1643, 1652, 1646]
ch3 : [2748, 2749, 2750, 2752, 2752, 2741, 2749, 2749, 2758, 2752]
ch0 : [2425, 2292, 2216, 2323, 2434, 2329, 2293, 2211, 2192, 2300]
ch1 : [3192, 3190, 3196, 3194, 3194, 3193, 3193, 3197, 3195, 3197]
ch2 : [1647, 1646, 1644, 1644, 1632, 1625, 1649, 1650, 1647, 1643]
ch3 : [2750, 2746, 2749, 2745, 2745, 2748, 2749, 2745, 2744, 2738]
ch0 : [2388, 2328, 2377, 2253, 2084, 2310, 2343, 2324, 2210, 2277]
ch1 : [3198, 3195, 3191, 3196, 3199, 3193, 3195, 3197, 3197, 3195]
ch2 : [1647, 1651, 1643, 1633, 1647, 1656, 1652, 1647, 1652, 1646]
ch3 : [2734, 2731, 2736, 2735, 2732, 2732, 2732, 2733, 2727, 2724]
ch0 : [2396, 2421, 2198, 2175, 2226, 2315, 2371, 2358, 2307, 2420]
ch1 : [3193, 3173, 3194, 3193, 3193, 3192, 3191, 3192, 3196, 3193]
ch2 : [1649, 1633, 1635, 1650, 1657, 1655, 1653, 1645, 1650, 1644]
ch3 : [2715, 2723, 2723, 2725, 2717, 2723, 2721, 2718, 2717, 2717]
ch0 : [2203, 2066, 2296, 2387, 2371, 2285, 2321, 2330, 2351, 2227]
ch1 : [3196, 3199, 3197, 3192, 3196, 3195, 3196, 3190, 3200, 3194]
ch2 : [1635, 1647, 1655, 1653, 1653, 1647, 1649, 1650, 1639, 1641]
ch3 : [2728, 2722, 2720, 2714, 2715, 2711, 2709, 2715, 2713, 2724]
ch0 : [2212, 2207, 2248, 2365, 2400, 2327, 2411, 2222, 1805, 2271]
ch1 : [3189, 3191, 3190, 3194, 3198, 3190, 3196, 3193, 3197, 3194]
ch2 : [1654, 1655, 1654, 1650, 1652, 1646, 1645, 1635, 1633, 1669]
ch3 : [2714, 2714, 2712, 2718, 2715, 2712, 2714, 2710, 2708, 2709]
ch0 : [2382, 2340, 2272, 2238, 2302, 2399, 2390, 2173, 2188, 2236]
ch1 : [3196, 3192, 3192, 3197, 3190, 3193, 3197, 3193, 3196, 3196]
ch2 : [1656, 1648, 1648, 1649, 1652, 1639, 1636, 1652, 1650, 1654]
ch3 : [2710, 2708, 2698, 2704, 2705, 2705, 2704, 2699, 2708, 2699]
ch0 : [2328, 2317, 2293, 2401, 2284, 1975, 2166, 2261, 2286, 2295]
ch1 : [3197, 3199, 3198, 3186, 3193, 3199, 3197, 3196, 3193, 3200]
ch2 : [1648, 1652, 1652, 1649, 1633, 1645, 1657, 1655, 1650, 1654]
ch3 : [2698, 2701, 2699, 2691, 2699, 2696, 2698, 2702, 2702, 2697]
ch0 : [2251, 2369, 2412, 2202, 1925, 2201, 2299, 2387, 2372, 2216]
ch1 : [3193, 3191, 3194, 3194, 3199, 3196, 3196, 3192, 3196, 3191]
ch2 : [1646, 1653, 1643, 1638, 1651, 1655, 1655, 1657, 1655, 1654]
ch3 : [2691, 2683, 2694, 2698, 2699, 2702, 2704, 2688, 2690, 2693]
ch0 : [2401, 2350, 1975, 2201, 2248, 2256, 2275, 2209, 2164, 2388]
ch1 : [3195, 3191, 3197, 3197, 3197, 3197, 3194, 3199, 3195, 3194]
ch2 : [1653, 1636, 1645, 1658, 1658, 1655, 1655, 1656, 1654, 1647]
ch3 : [2687, 2692, 2690, 2696, 2696, 2692, 2687, 2689, 2683, 2681]
ch0 : [2295, 1981, 2225, 2296, 2208, 2298, 2334, 2386, 2393, 1801]
ch1 : [3194, 3195, 3199, 3192, 3194, 3197, 3190, 3194, 3196, 3194]
ch2 : [1647, 1655, 1659, 1660, 1656, 1656, 1652, 1651, 1637, 1647]
ch3 : [2689, 2694, 2684, 2678, 2692, 2670, 2684, 2678, 2676, 2685]
ch0 : [1997, 2181, 2346, 2367, 2250, 2287, 2365, 2296, 2083, 2223]
ch1 : [3200, 3195, 3193, 3198, 3197, 3198, 3196, 3191, 3198, 3197]
ch2 : [1660, 1662, 1657, 1655, 1654, 1656, 1650, 1643, 1658, 1659]
ch3 : [2685, 2706, 2687, 2684, 2681, 2682, 2685, 2691, 2694, 2692]
ch0 : [2236, 2255, 2278, 2224, 2233, 2267, 1846, 2168, 2327, 2256]
ch1 : [3192, 3193, 3194, 3193, 3195, 3194, 3197, 3197, 3194, 3196]
ch2 : [1659, 1653, 1657, 1659, 1660, 1642, 1646, 1662, 1661, 1662]
ch3 : [2686, 2686, 2692, 2689, 2682, 2678, 2674, 2689, 2681, 2678]
ch0 : [2376, 2195, 2022, 2369, 2382, 2176, 2157, 2068, 2234, 2303]
ch1 : [3195, 3195, 3195, 3189, 3194, 3197, 3184, 3199, 3197, 3192]
ch2 : [1655, 1655, 1652, 1648, 1646, 1654, 1654, 1658, 1657, 1659]
ch3 : [2685, 2680, 2678, 2671, 2668, 2685, 2681, 2680, 2675, 2674]
ch0 : [2233, 2111, 2217, 1931, 2150, 2187, 2284, 2272, 2200, 2160]
ch1 : [3189, 3196, 3196, 3197, 3200, 3194, 3190, 3192, 3196, 3197]
ch2 : [1659, 1656, 1645, 1645, 1662, 1665, 1656, 1656, 1658, 1656]
ch3 : [2676, 2688, 2674, 2675, 2676, 2679, 2673, 2664, 2669, 2665]
ch0 : [2351, 2306, 2168, 2315, 2208, 2224, 2258, 2100, 2073, 2368]
ch1 : [3196, 3196, 3197, 3192, 3194, 3199, 3192, 3195, 3196, 3192]
ch2 : [1652, 1647, 1653, 1664, 1660, 1660, 1658, 1668, 1661, 1642]
ch3 : [2672, 2685, 2680, 2660, 2676, 2670, 2670, 2675, 2676, 2676]
ch0 : [2236, 2266, 2214, 2297, 2264, 2110, 2274, 2095, 2164, 2225]
ch1 : [3195, 3192, 3196, 3193, 3194, 3196, 3193, 3198, 3196, 3194]
ch2 : [1662, 1656, 1659, 1658, 1660, 1658, 1645, 1641, 1678, 1665]
ch3 : [2677, 2679, 2676, 2678, 2673, 2679, 2664, 2663, 2675, 2680]
ch0 : [2165, 2343, 2183, 2116, 2361, 2185, 1953, 2106, 2083, 2169]
ch1 : [3198, 3194, 3194, 3197, 3196, 3197, 3212, 3192, 3195, 3193]
ch2 : [1660, 1661, 1662, 1660, 1655, 1643, 1656, 1660, 1661, 1659]
ch3 : [2679, 2670, 2667, 2672, 2672, 2671, 2676, 2670, 2674, 2669]
ch0 : [2307, 2305, 2143, 2294, 2054, 2055, 2192, 2238, 2327, 2247]
ch1 : [3194, 3194, 3194, 3193, 3194, 3197, 3200, 3192, 3188, 3197]
ch2 : [1663, 1659, 1658, 1649, 1648, 1662, 1660, 1667, 1662, 1662]
ch3 : [2660, 2669, 2675, 2672, 2657, 2663, 2673, 2671, 2655, 2660]
ch0 : [2351, 2364, 2190, 1940, 2194, 2294, 2285, 2217, 2172, 2131]
ch1 : [3197, 3192, 3195, 3199, 3194, 3187, 3181, 3194, 3196, 3201]
ch2 : [1662, 1648, 1648, 1659, 1671, 1665, 1669, 1662, 1662, 1659]
ch3 : [2663, 2663, 2671, 2668, 2661, 2660, 2666, 2667, 2656, 2664]
ch0 : [2316, 2309, 2155, 2163, 2096, 2125, 2118, 2239, 2360, 2242]
ch1 : [3193, 3193, 3197, 3194, 3196, 3191, 3195, 3196, 3197, 3197]
ch2 : [1646, 1646, 1668, 1665, 1662, 1665, 1662, 1662, 1659, 1648]
ch3 : [2664, 2664, 2670, 2681, 2668, 2663, 2657, 2663, 2667, 2677]
ch0 : [2005, 2226, 2190, 2099, 2202, 2217, 2122, 2336, 2213, 2103]
ch1 : [3192, 3195, 3195, 3197, 3197, 3194, 3195, 3200, 3197, 3206]
ch2 : [1654, 1663, 1668, 1665, 1663, 1664, 1656, 1651, 1646, 1668]
ch3 : [2673, 2668, 2664, 2648, 2640, 2666, 2666, 2666, 2664, 2663]
ch0 : [2227, 2217, 2223, 2241, 2293, 2356, 2164, 1818, 2180, 2157]
ch1 : [3190, 3195, 3196, 3193, 3195, 3187, 3197, 3194, 3198, 3198]
ch2 : [1667, 1665, 1668, 1665, 1664, 1660, 1651, 1660, 1671, 1667]
ch3 : [2661, 2662, 2661, 2661, 2660, 2665, 2659, 2650, 2664, 2670]
ch0 : [2255, 2186, 2155, 2088, 2334, 2205, 2007, 2075, 2193, 2342]
ch1 : [3191, 3197, 3196, 3198, 3191, 3192, 3191, 3198, 3197, 3196]
ch2 : [1680, 1655, 1662, 1659, 1657, 1652, 1666, 1673, 1667, 1666]
ch3 : [2657, 2647, 2654, 2657, 2657, 2661, 2663, 2664, 2662, 2660]
ch0 : [2320, 2087, 2336, 2330, 1983, 2148, 2246, 2110, 2332, 2242]
ch1 : [3194, 3194, 3207, 3193, 3191, 3195, 3197, 3197, 3195, 3196]
ch2 : [1664, 1664, 1663, 1654, 1658, 1655, 1669, 1666, 1666, 1666]
ch3 : [2660, 2656, 2662, 2659, 2663, 2665, 2661, 2668, 2648, 2652]
ch0 : [2029, 2268, 2199, 2134, 2199, 2132, 2151, 2172, 2269, 2347]
ch1 : [3196, 3208, 3195, 3197, 3194, 3190, 3191, 3190, 3201, 3187]
ch2 : [1666, 1655, 1653, 1669, 1674, 1670, 1671, 1664, 1665, 1667]
ch3 : [2653, 2652, 2666, 2678, 2658, 2659, 2657, 2655, 2657, 2649]
ch0 : [1977, 2168, 2227, 2305, 2173, 2166, 2307, 2214, 1982, 2126]
ch1 : [3195, 3197, 3194, 3196, 3193, 3194, 3196, 3192, 3199, 3194]
ch2 : [1667, 1674, 1676, 1656, 1669, 1671, 1669, 1656, 1660, 1680]
ch3 : [2653, 2668, 2662, 2647, 2646, 2654, 2648, 2653, 2651, 2663]
ch0 : [2118, 2186, 2205, 2173, 2105, 2333, 2203, 1840, 1917, 2224]
ch1 : [3196, 3196, 3189, 3195, 3195, 3191, 3196, 3197, 3195, 3189]
ch2 : [1673, 1676, 1669, 1671, 1671, 1661, 1653, 1669, 1673, 1661]
ch3 : [2663, 2660, 2657, 2649, 2643, 2651, 2656, 2660, 2658, 2655]
ch0 : [2310, 2215, 2144, 2175, 2199, 2030, 2239, 2233, 2167, 2061]
ch1 : [3197, 3192, 3197, 3193, 3194, 3182, 3200, 3195, 3194, 3195]
ch2 : [1671, 1670, 1671, 1672, 1658, 1665, 1692, 1670, 1677, 1672]
ch3 : [2658, 2651, 2650, 2650, 2656, 2660, 2660, 2656, 2654, 2659]
ch0 : [2071, 2134, 2247, 2318, 2097, 2213, 2219, 2186, 2168, 2162]
ch1 : [3195, 3196, 3192, 3204, 3191, 3195, 3194, 3198, 3192, 3197]
ch2 : [1670, 1668, 1666, 1657, 1671, 1675, 1679, 1671, 1659, 1670]
ch3 : [2655, 2655, 2669, 2655, 2660, 2659, 2654, 2660, 2647, 2649]
ch0 : [2090, 2132, 2079, 2180, 2170, 2154, 2108, 2272, 1924, 2326]
ch1 : [3195, 3191, 3196, 3200, 3194, 3196, 3196, 3193, 3199, 3197]
ch2 : [1672, 1663, 1660, 1670, 1669, 1672, 1676, 1671, 1672, 1665]
ch3 : [2658, 2658, 2656, 2653, 2649, 2653, 2650, 2665, 2656, 2651]
ch0 : [2180, 1907, 2197, 2283, 2274, 2132, 2025, 2214, 2287, 2080]
ch1 : [3195, 3197, 3195, 3195, 3191, 3203, 3191, 3193, 3191, 3197]
ch2 : [1653, 1670, 1674, 1675, 1676, 1671, 1669, 1667, 1661, 1660]
ch3 : [2648, 2654, 2668, 2657, 2658, 2654, 2655, 2660, 2659, 2665]
ch0 : [2193, 2246, 2140, 2132, 2104, 2255, 2328, 2121, 1819, 2121]
ch1 : [3196, 3195, 3195, 3198, 3191, 3193, 3192, 3190, 3199, 3192]
ch2 : [1672, 1674, 1674, 1679, 1654, 1671, 1664, 1652, 1671, 1674]
ch3 : [2665, 2661, 2662, 2657, 2661, 2658, 2660, 2646, 2647, 2654]
ch0 : [2222, 2187, 2047, 1884, 2075, 2280, 2219, 2077, 2094, 2124]
ch1 : [3194, 3195, 3194, 3191, 3197, 3191, 3194, 3198, 3197, 3198]
ch2 : [1673, 1671, 1665, 1677, 1669, 1645, 1654, 1673, 1672, 1670]
ch3 : [2659, 2658, 2643, 2647, 2650, 2647, 2649, 2661, 2652, 2650]
ch0 : [2192, 2184, 2139, 2301, 2308, 2050, 2086, 2094, 2210, 2248]
ch1 : [3194, 3194, 3194, 3187, 3191, 3194, 3199, 3194, 3208, 3197]
ch2 : [1674, 1671, 1669, 1664, 1651, 1663, 1676, 1673, 1672, 1670]
ch3 : [2647, 2647, 2652, 2648, 2652, 2659, 2657, 2660, 2654, 2656]
ch0 : [2165, 2143, 2268, 2177, 2041, 2070, 2088, 2148, 2131, 2119]
ch1 : [3194, 3195, 3194, 3206, 3196, 3195, 3199, 3196, 3195, 3195]
ch2 : [1667, 1672, 1666, 1664, 1663, 1675, 1672, 1677, 1672, 1673]
ch3 : [2657, 2656, 2653, 2651, 2647, 2656, 2657, 2662, 2661, 2659]
ch0 : [2038, 2041, 2144, 2197, 2113, 2032, 2145, 2304, 2139, 1716]
ch1 : [3196, 3195, 3194, 3195, 3194, 3197, 3196, 3197, 3194, 3198]
ch2 : [1663, 1676, 1676, 1678, 1671, 1659, 1672, 1655, 1657, 1665]
ch3 : [2655, 2651, 2660, 2661, 2652, 2648, 2651, 2653, 2650, 2658]
ch0 : [2051, 2215, 2210, 2097, 2133, 2136, 2236, 2059, 2033, 2144]
ch1 : [3193, 3187, 3194, 3193, 3196, 3193, 3196, 3193, 3196, 3193]
ch2 : [1675, 1674, 1671, 1669, 1669, 1668, 1660, 1655, 1671, 1673]
ch3 : [2656, 2650, 2655, 2645, 2649, 2651, 2657, 2659, 2661, 2657]
ch0 : [2246, 2159, 2003, 2057, 2292, 2228, 1688, 1874, 2063, 2282]
ch1 : [3198, 3195, 3195, 3194, 3195, 3197, 3204, 3186, 3196, 3193]
ch2 : [1678, 1674, 1667, 1672, 1671, 1662, 1666, 1676, 1674, 1673]
ch3 : [2660, 2658, 2651, 2649, 2650, 2651, 2657, 2664, 2656, 2660]
ch0 : [2263, 2131, 2010, 2122, 2162, 2084, 2124, 2121, 2098, 2161]
ch1 : [3192, 3194, 3190, 3193, 3197, 3191, 3195, 3184, 3191, 3183]
ch2 : [1672, 1676, 1671, 1661, 1659, 1676, 1671, 1675, 1672, 1673]
ch3 : [2661, 2651, 2643, 2649, 2667, 2655, 2657, 2652, 2649, 2654]
ch0 : [2144, 2289, 2188, 1811, 2024, 2137, 2128, 2139, 2062, 2082]
ch1 : [3192, 3193, 3192, 3200, 3195, 3191, 3196, 3196, 3197, 3199]
ch2 : [1673, 1677, 1662, 1665, 1676, 1677, 1674, 1664, 1672, 1668]
ch3 : [2658, 2662, 2659, 2661, 2660, 2658, 2659, 2660, 2657, 2657]
ch0 : [2285, 2173, 1989, 2077, 2121, 2135, 2052, 2115, 2093, 2125]
ch1 : [3195, 3189, 3195, 3199, 3193, 3193, 3198, 3195, 3194, 3197]
ch2 : [1669, 1658, 1674, 1675, 1678, 1676, 1674, 1674, 1672, 1658]
ch3 : [2662, 2674, 2666, 2666, 2663, 2649, 2657, 2654, 2659, 2651]
ch0 : [1823, 2066, 2042, 2078, 2149, 2143, 2095, 2220, 2234, 2021]
ch1 : [3201, 3196, 3202, 3195, 3194, 3194, 3198, 3197, 3197, 3195]
ch2 : [1666, 1676, 1678, 1673, 1677, 1673, 1673, 1664, 1658, 1672]
ch3 : [2656, 2654, 2660, 2654, 2650, 2649, 2651, 2648, 2650, 2659]
ch0 : [2095, 2096, 2108, 2169, 2044, 2061, 2282, 1868, 2000, 2048]
ch1 : [3196, 3202, 3191, 3191, 3200, 3194, 3197, 3197, 3196, 3201]
ch2 : [1671, 1675, 1675, 1676, 1673, 1673, 1658, 1668, 1673, 1677]
ch3 : [2663, 2655, 2652, 2653, 2653, 2650, 2652, 2651, 2664, 2663]
ch0 : [2128, 2151, 2088, 2071, 2247, 2154, 1970, 2078, 2112, 2103]
ch1 : [3197, 3195, 3193, 3198, 3177, 3196, 3197, 3200, 3195, 3193]
ch2 : [1678, 1674, 1675, 1671, 1662, 1660, 1658, 1677, 1676, 1676]
ch3 : [2663, 2653, 2648, 2644, 2652, 2657, 2659, 2656, 2645, 2657]
ch0 : [2117, 2061, 2030, 2137, 1822, 2001, 2105, 2083, 2150, 2078]
ch1 : [3209, 3195, 3194, 3195, 3198, 3196, 3200, 3198, 3190, 3198]
ch2 : [1674, 1675, 1673, 1662, 1661, 1681, 1678, 1675, 1670, 1676]
ch3 : [2656, 2659, 2659, 2654, 2651, 2663, 2662, 2673, 2659, 2653]
ch0 : [2095, 2276, 2118, 1955, 2080, 2119, 2138, 2118, 2062, 2056]
ch1 : [3197, 3192, 3191, 3208, 3197, 3194, 3194, 3197, 3194, 3191]
ch2 : [1675, 1665, 1660, 1676, 1675, 1678, 1674, 1670, 1677, 1685]
ch3 : [2657, 2657, 2661, 2663, 2660, 2660, 2663, 2656, 2662, 2659]
ch0 : [2209, 1880, 2015, 2106, 2127, 2176, 2098, 2110, 2279, 2115]
ch1 : [3193, 3196, 3192, 3195, 3196, 3194, 3199, 3190, 3195, 3194]
ch2 : [1663, 1660, 1679, 1674, 1680, 1672, 1673, 1676, 1667, 1664]
ch3 : [2657, 2664, 2658, 2660, 2662, 2667, 2654, 2655, 2651, 2663]
ch0 : [1951, 2108, 2142, 2136, 2133, 2108, 2049, 2198, 1956, 2013]
ch1 : [3195, 3194, 3194, 3194, 3197, 3192, 3195, 3194, 3195, 3195]
ch2 : [1667, 1679, 1672, 1674, 1676, 1679, 1676, 1646, 1654, 1676]
ch3 : [2664, 2660, 2660, 2660, 2662, 2656, 2667, 2661, 2668, 2667]
ch0 : [2118, 2136, 2186, 2103, 2118, 2257, 2165, 1957, 2118, 2116]
ch1 : [3196, 3191, 3196, 3196, 3195, 3198, 3200, 3199, 3196, 3191]
ch2 : [1682, 1675, 1667, 1677, 1673, 1667, 1661, 1670, 1683, 1678]
ch3 : [2668, 2664, 2662, 2659, 2661, 2652, 2669, 2670, 2667, 2669]
ch0 : [2148, 2140, 2098, 2065, 2179, 2050, 2015, 2117, 2136, 2185]
ch1 : [3197, 3195, 3196, 3195, 3191, 3198, 3194, 3195, 3196, 3195]
ch2 : [1680, 1677, 1678, 1680, 1662, 1665, 1678, 1679, 1683, 1675]
ch3 : [2668, 2667, 2669, 2668, 2666, 2668, 2676, 2675, 2678, 2674]
ch0 : [2114, 2113, 2292, 2197, 1965, 2119, 2140, 2154, 2160, 2122]
ch1 : [3196, 3191, 3191, 3195, 3192, 3195, 3195, 3197, 3193, 3200]
ch2 : [1676, 1678, 1671, 1659, 1671, 1681, 1664, 1674, 1676, 1674]
ch3 : [2674, 2674, 2673, 2680, 2685, 2682, 2682, 2684, 2685, 2686]
ch0 : [2082, 2264, 2145, 2016, 2134, 2169, 2227, 2165, 2165, 2300]
ch1 : [3192, 3194, 3196, 3191, 3195, 3200, 3194, 3199, 3195, 3192]
ch2 : [1676, 1661, 1653, 1681, 1674, 1675, 1675, 1672, 1672, 1664]
ch3 : [2693, 2686, 2686, 2691, 2697, 2696, 2704, 2693, 2691, 2692]
ch0 : [2261, 1993, 2149, 2187, 2161, 2195, 2165, 2135, 2287, 2178]
ch1 : [3194, 3197, 3195, 3197, 3197, 3192, 3189, 3194, 3200, 3190]
ch2 : [1659, 1666, 1674, 1676, 1672, 1673, 1669, 1661, 1654, 1654]
ch3 : [2695, 2699, 2698, 2698, 2705, 2695, 2700, 2698, 2696, 2699]
ch0 : [2051, 2171, 2200, 2261, 2180, 2159, 2320, 2254, 1972, 2149]
ch1 : [3198, 3196, 3202, 3193, 3195, 3188, 3193, 3197, 3198, 3197]
ch2 : [1678, 1675, 1673, 1670, 1661, 1673, 1670, 1655, 1663, 1672]
ch3 : [2703, 2707, 2704, 2698, 2696, 2698, 2699, 2699, 2705, 2703]
ch0 : [2178, 2155, 2180, 2130, 2090, 2276, 2176, 1992, 2121, 2151]
ch1 : [3193, 3194, 3196, 3195, 3206, 3194, 3191, 3191, 3191, 3200]
ch2 : [1674, 1675, 1670, 1669, 1673, 1660, 1652, 1666, 1673, 1687]
ch3 : [2703, 2702, 2701, 2703, 2704, 2701, 2687, 2704, 2705, 2708]
ch0 : [2108, 2091, 2311, 2177, 1967, 2126, 2175, 2256, 2158, 2125]
ch1 : [3190, 3192, 3189, 3195, 3191, 3189, 3196, 3195, 3197, 3195]
ch2 : [1669, 1672, 1658, 1651, 1669, 1674, 1673, 1671, 1667, 1667]
ch3 : [2703, 2707, 2707, 2702, 2705, 2707, 2712, 2707, 2701, 2699]
ch0 : [2284, 2255, 1948, 2112, 2159, 2155, 2204, 2167, 2116, 2282]
ch1 : [3193, 3191, 3195, 3199, 3206, 3196, 3200, 3196, 3193, 3196]
ch2 : [1667, 1654, 1660, 1670, 1667, 1670, 1674, 1672, 1669, 1660]
ch3 : [2710, 2707, 2709, 2709, 2708, 2710, 2712, 2710, 2711, 2711]
ch0 : [2147, 1993, 2151, 2179, 2274, 2163, 2129, 2240, 2196, 1951]
ch1 : [3196, 3191, 3195, 3194, 3190, 3194, 3196, 3193, 3193, 3197]
ch2 : [1636, 1672, 1673, 1688, 1673, 1668, 1666, 1667, 1656, 1654]
ch3 : [2715, 2712, 2713, 2720, 2709, 2708, 2710, 2716, 2716, 2720]
ch0 : [2112, 2166, 2182, 2183, 2148, 2127, 2316, 2280, 1962, 2136]
ch1 : [3196, 3192, 3195, 3190, 3194, 3196, 3195, 3196, 3196, 3196]
ch2 : [1670, 1667, 1673, 1662, 1668, 1686, 1659, 1646, 1662, 1676]
ch3 : [2715, 2716, 2713, 2701, 2710, 2714, 2716, 2710, 2718, 2720]
ch0 : [2178, 2247, 2179, 2135, 2181, 2262, 1994, 2127, 2212, 2166]
ch1 : [3197, 3190, 3197, 3204, 3195, 3193, 3196, 3183, 3197, 3196]
ch2 : [1669, 1666, 1675, 1664, 1650, 1648, 1661, 1667, 1668, 1669]
ch3 : [2719, 2720, 2714, 2716, 2715, 2718, 2720, 2721, 2733, 2720]
ch0 : [2176, 2159, 2155, 2325, 2182, 1988, 2150, 2190, 2281, 2194]
ch1 : [3194, 3190, 3195, 3195, 3195, 3196, 3191, 3200, 3197, 3200]
ch2 : [1665, 1664, 1668, 1668, 1648, 1669, 1671, 1669, 1667, 1666]
ch3 : [2720, 2713, 2719, 2719, 2716, 2720, 2725, 2724, 2719, 2716]
ch0 : [2144, 2179, 2263, 2090, 2126, 2178, 2176, 2190, 2174, 2154]
ch1 : [3192, 3196, 3198, 3201, 3197, 3194, 3196, 3197, 3194, 3194]
ch2 : [1665, 1666, 1653, 1654, 1668, 1663, 1667, 1665, 1665, 1662]
ch3 : [2718, 2721, 2722, 2726, 2721, 2722, 2724, 2723, 2722, 2727]
ch0 : [2332, 2177, 1949, 2123, 2178, 2261, 2196, 2137, 2139, 2299]
ch1 : [3194, 3195, 3196, 3200, 3198, 3197, 3198, 3193, 3188, 3197]
