device found = /dev/cu.usbmodem14433
ch0 : [2666, 2500, 2643, 2649, 2658, 2657, 2632, 2593, 2672, 2557]
ch1 : [3184, 3180, 3191, 3184, 3186, 3184, 3186, 3188, 3184, 3180]
ch2 : [1464, 1468, 1481, 1476, 1477, 1472, 1474, 1472, 1461, 1457]
ch3 : [2854, 2857, 2862, 2864, 2863, 2860, 2862, 2864, 2863, 2860]
ch0 : [2558, 2656, 2657, 2661, 2651, 2655, 2669, 2667, 2501, 2642]
ch1 : [3180, 3180, 3182, 3184, 3186, 3184, 3186, 3184, 3191, 3184]
ch2 : [1470, 1477, 1480, 1473, 1478, 1475, 1475, 1465, 1477, 1482]
ch3 : [2870, 2868, 2870, 2868, 2867, 2868, 2870, 2867, 2870, 2862]
ch0 : [2647, 2641, 2660, 2641, 2597, 2669, 2606, 2546, 2652, 2656]
ch1 : [3183, 3185, 3185, 3192, 3185, 3185, 3183, 3181, 3187, 3181]
ch2 : [1481, 1491, 1480, 1482, 1480, 1471, 1460, 1485, 1485, 1487]
ch3 : [2872, 2873, 2871, 2872, 2871, 2871, 2869, 2866, 2874, 2873]
ch0 : [2663, 2642, 2646, 2667, 2663, 2471, 2633, 2660, 2658, 2659]
ch1 : [3188, 3185, 3187, 3186, 3181, 3185, 3186, 3187, 3175, 3184]
ch2 : [1482, 1489, 1480, 1480, 1467, 1476, 1480, 1484, 1483, 1480]
ch3 : [2872, 2880, 2873, 2872, 2872, 2880, 2878, 2874, 2873, 2876]
ch0 : [2645, 2604, 2671, 2667, 2527, 2644, 2658, 2661, 2650, 2659]
ch1 : [3182, 3186, 3184, 3181, 3182, 3181, 3192, 3185, 3188, 3187]
ch2 : [1480, 1477, 1469, 1459, 1479, 1480, 1479, 1477, 1481, 1478]
ch3 : [2873, 2868, 2870, 2868, 2874, 2877, 2872, 2873, 2866, 2858]
ch0 : [2668, 2652, 2471, 2621, 2659, 2657, 2660, 2650, 2622, 2670]
ch1 : [3183, 3185, 3179, 3185, 3183, 3187, 3185, 3190, 3192, 3186]
ch2 : [1470, 1461, 1466, 1478, 1481, 1480, 1477, 1473, 1480, 1466]
ch3 : [2871, 2868, 2872, 2877, 2875, 2877, 2876, 2871, 2874, 2872]
ch0 : [2643, 2512, 2651, 2657, 2662, 2648, 2664, 2665, 2670, 2457]
ch1 : [3183, 3182, 3184, 3184, 3185, 3186, 3172, 3188, 3168, 3186]
ch2 : [1459, 1477, 1481, 1476, 1480, 1474, 1475, 1477, 1463, 1456]
ch3 : [2872, 2881, 2877, 2878, 2876, 2873, 2877, 2876, 2876, 2875]
ch0 : [2624, 2655, 2658, 2661, 2639, 2634, 2675, 2658, 2506, 2651]
ch1 : [3183, 3186, 3183, 3189, 3187, 3191, 3188, 3188, 3184, 3183]
ch2 : [1480, 1478, 1472, 1474, 1472, 1475, 1464, 1457, 1470, 1476]
ch3 : [2883, 2881, 2879, 2880, 2877, 2878, 2878, 2878, 2880, 2883]
ch0 : [2659, 2665, 2661, 2640, 2666, 2667, 2456, 2610, 2659, 2662]
ch1 : [3185, 3183, 3185, 3189, 3189, 3188, 3183, 3182, 3185, 3188]
ch2 : [1476, 1479, 1470, 1466, 1468, 1459, 1462, 1474, 1456, 1471]
ch3 : [2888, 2879, 2877, 2882, 2881, 2881, 2880, 2888, 2883, 2886]
ch0 : [2667, 2652, 2637, 2671, 2647, 2486, 2636, 2658, 2663, 2661]
ch1 : [3187, 3187, 3187, 3186, 3183, 3181, 3187, 3179, 3182, 3187]
ch2 : [1469, 1471, 1468, 1458, 1449, 1466, 1468, 1469, 1460, 1463]
ch3 : [2877, 2887, 2885, 2885, 2885, 2889, 2891, 2897, 2892, 2891]
ch0 : [2675, 2675, 2463, 2645, 2657, 2663, 2662, 2648, 2653, 2660]
ch1 : [3189, 3183, 3184, 3183, 3185, 3186, 3182, 3188, 3185, 3186]
ch2 : [1457, 1451, 1462, 1468, 1466, 1466, 1469, 1469, 1462, 1459]
ch3 : [2899, 2900, 2901, 2905, 2903, 2904, 2903, 2905, 2902, 2898]
ch0 : [2596, 2613, 2664, 2660, 2664, 2662, 2657, 2669, 2663, 2480]
ch1 : [3185, 3185, 3194, 3184, 3189, 3187, 3188, 3187, 3181, 3182]
ch2 : [1457, 1469, 1469, 1469, 1469, 1468, 1469, 1461, 1454, 1467]
ch3 : [2901, 2902, 2910, 2904, 2898, 2911, 2900, 2897, 2894, 2895]
ch0 : [2638, 2663, 2667, 2664, 2667, 2660, 2675, 2623, 2627, 2666]
ch1 : [3188, 3185, 3185, 3182, 3172, 3189, 3185, 3183, 3183, 3185]
ch2 : [1478, 1469, 1471, 1473, 1469, 1473, 1459, 1465, 1473, 1478]
ch3 : [2902, 2895, 2897, 2891, 2887, 2894, 2893, 2897, 2892, 2893]
ch0 : [2660, 2667, 2664, 2660, 2675, 2674, 2457, 2642, 2667, 2668]
ch1 : [3187, 3190, 3189, 3189, 3186, 3186, 3183, 3185, 3183, 3176]
ch2 : [1466, 1475, 1468, 1465, 1459, 1454, 1469, 1475, 1472, 1471]
ch3 : [2888, 2890, 2889, 2883, 2887, 2888, 2889, 2888, 2883, 2888]
ch0 : [2668, 2646, 2644, 2675, 2653, 2597, 2665, 2659, 2667, 2669]
ch1 : [3187, 3188, 3188, 3188, 3183, 3184, 3185, 3186, 3187, 3187]
ch2 : [1473, 1473, 1471, 1455, 1460, 1475, 1475, 1481, 1476, 1472]
ch3 : [2883, 2884, 2888, 2886, 2881, 2886, 2892, 2889, 2889, 2887]
ch0 : [2666, 2681, 2672, 2415, 2628, 2659, 2667, 2663, 2654, 2654]
ch1 : [3189, 3181, 3181, 3181, 3181, 3188, 3197, 3192, 3185, 3179]
ch2 : [1480, 1471, 1454, 1473, 1479, 1483, 1476, 1475, 1476, 1476]
ch3 : [2883, 2883, 2882, 2889, 2883, 2889, 2875, 2888, 2889, 2887]
ch0 : [2673, 2675, 2601, 2661, 2665, 2654, 2657, 2661, 2678, 2674]
ch1 : [3187, 3191, 3183, 3186, 3184, 3189, 3190, 3189, 3189, 3188]
ch2 : [1461, 1462, 1477, 1482, 1478, 1477, 1476, 1475, 1474, 1461]
ch3 : [2886, 2889, 2891, 2889, 2891, 2886, 2887, 2891, 2888, 2886]
ch0 : [2401, 2612, 2665, 2654, 2667, 2646, 2635, 2675, 2654, 2584]
ch1 : [3184, 3179, 3179, 3185, 3186, 3192, 3189, 3192, 3185, 3185]
ch2 : [1466, 1484, 1479, 1479, 1478, 1475, 1476, 1453, 1465, 1480]
ch3 : [2887, 2896, 2891, 2893, 2888, 2888, 2887, 2888, 2888, 2888]
ch0 : [2664, 2651, 2667, 2663, 2636, 2675, 2655, 2390, 2610, 2656]
ch1 : [3183, 3187, 3183, 3183, 3193, 3191, 3182, 3169, 3184, 3182]
ch2 : [1485, 1481, 1478, 1474, 1480, 1479, 1456, 1476, 1488, 1490]
ch3 : [2888, 2893, 2887, 2886, 2888, 2889, 2882, 2885, 2888, 2878]
ch0 : [2664, 2667, 2657, 2641, 2665, 2677, 2561, 2661, 2658, 2664]
ch1 : [3183, 3195, 3189, 3184, 3185, 3168, 3178, 3181, 3184, 3181]
ch2 : [1485, 1489, 1487, 1491, 1471, 1478, 1491, 1498, 1500, 1498]
ch3 : [2886, 2882, 2882, 2879, 2884, 2883, 2886, 2881, 2893, 2879]
ch0 : [2636, 2673, 2669, 2548, 2647, 2657, 2662, 2660, 2602, 2646]
ch1 : [3183, 3186, 3188, 3180, 3181, 3181, 3187, 3184, 3188, 3185]
ch2 : [1499, 1486, 1478, 1500, 1498, 1495, 1493, 1490, 1496, 1489]
ch3 : [2887, 2884, 2885, 2887, 2890, 2889, 2889, 2890, 2887, 2889]
ch0 : [2670, 2372, 2573, 2645, 2657, 2664, 2625, 2635, 2670, 2677]
ch1 : [3186, 3185, 3182, 3183, 3184, 3186, 3185, 3182, 3196, 3194]
ch2 : [1476, 1482, 1491, 1490, 1488, 1489, 1485, 1487, 1485, 1471]
ch3 : [2884, 2883, 2887, 2889, 2892, 2887, 2892, 2887, 2885, 2890]
ch0 : [2529, 2643, 2648, 2655, 2650, 2615, 2609, 2669, 2357, 2573]
ch1 : [3182, 3183, 3186, 3184, 3186, 3188, 3186, 3187, 3187, 3181]
ch2 : [1491, 1487, 1483, 1483, 1483, 1488, 1480, 1466, 1462, 1485]
ch3 : [2874, 2883, 2890, 2890, 2888, 2892, 2892, 2893, 2890, 2893]
ch0 : [2644, 2652, 2661, 2621, 2645, 2679, 2664, 2497, 2633, 2653]
ch1 : [3179, 3183, 3183, 3176, 3184, 3183, 3183, 3179, 3186, 3186]
ch2 : [1486, 1481, 1477, 1462, 1475, 1472, 1461, 1470, 1490, 1479]
ch3 : [2886, 2897, 2891, 2889, 2891, 2885, 2891, 2887, 2893, 2891]
ch0 : [2654, 2660, 2624, 2596, 2665, 2434, 2550, 2647, 2650, 2661]
ch1 : [3180, 3188, 3185, 3188, 3185, 3195, 3181, 3179, 3185, 3183]
ch2 : [1468, 1467, 1466, 1470, 1456, 1473, 1474, 1471, 1468, 1454]
ch3 : [2893, 2890, 2894, 2892, 2888, 2885, 2901, 2893, 2891, 2889]
ch0 : [2630, 2644, 2663, 2651, 2502, 2617, 2649, 2655, 2651, 2631]
ch1 : [3189, 3183, 3186, 3183, 3181, 3184, 3183, 3187, 3185, 3188]
ch2 : [1473, 1463, 1455, 1456, 1463, 1469, 1467, 1469, 1464, 1466]
ch3 : [2886, 2891, 2891, 2891, 2894, 2896, 2894, 2892, 2891, 2891]
ch0 : [2596, 2666, 2512, 2548, 2644, 2652, 2660, 2655, 2641, 2657]
ch1 : [3187, 3183, 3188, 3179, 3180, 3186, 3185, 3189, 3185, 3187]
ch2 : [1464, 1451, 1449, 1467, 1470, 1474, 1468, 1465, 1466, 1457]
ch3 : [2891, 2890, 2888, 2892, 2890, 2894, 2888, 2888, 2887, 2885]
ch0 : [2667, 2520, 2643, 2636, 2654, 2657, 2631, 2594, 2664, 2511]
ch1 : [3184, 3182, 3182, 3188, 3188, 3183, 3190, 3192, 3188, 3185]
ch2 : [1456, 1468, 1472, 1474, 1474, 1472, 1477, 1473, 1461, 1462]
ch3 : [2885, 2892, 2896, 2898, 2890, 2884, 2883, 2884, 2872, 2881]
ch0 : [2539, 2642, 2653, 2654, 2650, 2670, 2664, 2659, 2481, 2636]
ch1 : [3179, 3178, 3184, 3186, 3178, 3185, 3191, 3183, 3185, 3185]
ch2 : [1474, 1483, 1487, 1479, 1485, 1481, 1479, 1471, 1480, 1492]
ch3 : [2885, 2884, 2883, 2885, 2883, 2884, 2885, 2885, 2888, 2886]
ch0 : [2652, 2656, 2664, 2631, 2616, 2667, 2665, 2531, 2648, 2655]
ch1 : [3184, 3186, 3189, 3184, 3187, 3185, 3185, 3182, 3181, 3185]
ch2 : [1488, 1490, 1485, 1482, 1490, 1478, 1465, 1491, 1494, 1491]
ch3 : [2884, 2890, 2884, 2884, 2887, 2887, 2879, 2887, 2888, 2888]
ch0 : [2635, 2608, 2664, 2655, 2520, 2631, 2655, 2664, 2644, 2643]
ch1 : [3201, 3189, 3188, 3182, 3179, 3179, 3185, 3185, 3187, 3182]
ch2 : [1494, 1495, 1489, 1479, 1497, 1498, 1499, 1499, 1498, 1495]
ch3 : [2887, 2885, 2893, 2897, 2886, 2888, 2886, 2884, 2879, 2879]
ch0 : [2655, 2672, 2444, 2620, 2655, 2643, 2658, 2616, 2601, 2664]
ch1 : [3185, 3184, 3186, 3184, 3185, 3185, 3186, 3193, 3188, 3184]
ch2 : [1498, 1487, 1495, 1503, 1506, 1500, 1500, 1484, 1501, 1491]
ch3 : [2883, 2879, 2884, 2885, 2883, 2882, 2882, 2877, 2881, 2879]
ch0 : [2666, 2512, 2642, 2642, 2659, 2655, 2639, 2660, 2662, 2431]
ch1 : [3182, 3180, 3179, 3176, 3188, 3188, 3192, 3185, 3183, 3183]
ch2 : [1487, 1499, 1506, 1499, 1508, 1504, 1501, 1504, 1486, 1496]
ch3 : [2881, 2882, 2881, 2879, 2870, 2875, 2880, 2879, 2878, 2865]
ch0 : [2586, 2655, 2643, 2658, 2635, 2617, 2667, 2662, 2488, 2653]
ch1 : [3182, 3188, 3188, 3186, 3187, 3185, 3187, 3183, 3183, 3179]
ch2 : [1501, 1505, 1511, 1504, 1507, 1503, 1491, 1486, 1504, 1509]
ch3 : [2865, 2873, 2879, 2878, 2874, 2875, 2872, 2868, 2869, 2867]
ch0 : [2659, 2666, 2655, 2644, 2664, 2676, 2511, 2663, 2680, 2673]
ch1 : [3181, 3186, 3186, 3185, 3183, 3185, 3185, 3181, 3178, 3183]
ch2 : [1505, 1498, 1501, 1502, 1496, 1485, 1489, 1499, 1498, 1501]
ch3 : [2863, 2865, 2865, 2867, 2863, 2868, 2868, 2865, 2865, 2871]
ch0 : [2680, 2678, 2684, 2695, 2692, 2578, 2689, 2688, 2697, 2708]
ch1 : [3198, 3189, 3187, 3174, 3184, 3180, 3181, 3182, 3180, 3184]
ch2 : [1498, 1494, 1492, 1479, 1470, 1492, 1492, 1490, 1493, 1488]
ch3 : [2874, 2865, 2869, 2863, 2858, 2865, 2867, 2868, 2851, 2861]
ch0 : [2687, 2695, 2706, 2547, 2655, 2691, 2683, 2695, 2660, 2647]
ch1 : [3184, 3183, 3187, 3186, 3167, 3185, 3179, 3182, 3190, 3187]
ch2 : [1484, 1488, 1466, 1456, 1486, 1488, 1488, 1482, 1488, 1485]
ch3 : [2872, 2869, 2873, 2877, 2871, 2872, 2868, 2863, 2860, 2858]
ch0 : [2701, 2639, 2458, 2631, 2656, 2687, 2656, 2611, 2636, 2689]
ch1 : [3184, 3182, 3179, 3184, 3185, 3181, 3175, 3199, 3187, 3183]
ch2 : [1478, 1463, 1483, 1468, 1479, 1483, 1470, 1486, 1489, 1473]
ch3 : [2862, 2865, 2868, 2872, 2869, 2860, 2855, 2861, 2857, 2851]
ch0 : [2566, 2583, 2648, 2658, 2670, 2611, 2617, 2677, 2668, 2446]
ch1 : [3185, 3179, 3182, 3191, 3186, 3183, 3189, 3188, 3185, 3183]
ch2 : [1470, 1482, 1481, 1475, 1481, 1487, 1483, 1478, 1466, 1482]
ch3 : [2858, 2855, 2853, 2837, 2856, 2845, 2846, 2848, 2840, 2844]
ch0 : [2617, 2663, 2659, 2669, 2624, 2632, 2673, 2588, 2593, 2648]
ch1 : [3184, 3174, 3187, 3184, 3189, 3186, 3195, 3186, 3184, 3183]
ch2 : [1504, 1487, 1486, 1480, 1479, 1498, 1469, 1467, 1483, 1485]
ch3 : [2843, 2846, 2831, 2834, 2831, 2838, 2836, 2845, 2839, 2836]
ch0 : [2647, 2661, 2635, 2630, 2670, 2651, 2429, 2628, 2659, 2659]
ch1 : [3183, 3185, 3187, 3182, 3187, 3183, 3179, 3183, 3182, 3186]
ch2 : [1488, 1484, 1478, 1476, 1471, 1460, 1475, 1482, 1480, 1475]
ch3 : [2830, 2828, 2823, 2833, 2829, 2822, 2823, 2820, 2813, 2809]
ch0 : [2663, 2625, 2622, 2670, 2629, 2590, 2651, 2642, 2658, 2661]
ch1 : [3186, 3188, 3187, 3183, 3183, 3185, 3186, 3189, 3189, 3187]
ch2 : [1468, 1461, 1467, 1452, 1448, 1467, 1471, 1459, 1452, 1444]
ch3 : [2812, 2808, 2811, 2813, 2816, 2808, 2802, 2799, 2808, 2803]
ch0 : [2636, 2671, 2668, 2421, 2598, 2657, 2655, 2659, 2633, 2633]
ch1 : [3183, 3190, 3184, 3175, 3184, 3188, 3185, 3186, 3185, 3172]
ch2 : [1444, 1444, 1424, 1441, 1452, 1450, 1440, 1438, 1439, 1439]
ch3 : [2806, 2803, 2798, 2803, 2809, 2803, 2798, 2795, 2800, 2792]
ch0 : [2667, 2664, 2565, 2648, 2637, 2657, 2637, 2646, 2669, 2663]
ch1 : [3189, 3189, 3181, 3185, 3189, 3189, 3189, 3191, 3183, 3184]
ch2 : [1431, 1429, 1438, 1451, 1445, 1447, 1447, 1450, 1446, 1438]
ch3 : [2789, 2796, 2793, 2792, 2794, 2789, 2781, 2780, 2787, 2786]
ch0 : [2389, 2594, 2652, 2647, 2657, 2626, 2626, 2664, 2661, 2557]
ch1 : [3179, 3187, 3183, 3182, 3187, 3190, 3189, 3189, 3182, 3182]
ch2 : [1439, 1459, 1453, 1468, 1452, 1453, 1456, 1446, 1446, 1457]
ch3 : [2783, 2778, 2774, 2780, 2779, 2776, 2776, 2775, 2775, 2778]
ch0 : [2646, 2646, 2648, 2652, 2640, 2662, 2666, 2365, 2611, 2654]
ch1 : [3195, 3188, 3187, 3188, 3189, 3192, 3189, 3187, 3183, 3184]
ch2 : [1465, 1462, 1459, 1457, 1456, 1453, 1436, 1448, 1458, 1455]
ch3 : [2771, 2761, 2758, 2772, 2779, 2772, 2765, 2768, 2771, 2770]
ch0 : [2649, 2665, 2632, 2645, 2666, 2671, 2538, 2647, 2642, 2661]
ch1 : [3179, 3186, 3189, 3192, 3189, 3182, 3183, 3187, 3188, 3195]
ch2 : [1444, 1447, 1440, 1443, 1431, 1429, 1440, 1444, 1442, 1437]
ch3 : [2756, 2760, 2764, 2765, 2765, 2770, 2774, 2765, 2770, 2762]
ch0 : [2655, 2652, 2665, 2666, 2349, 2592, 2649, 2651, 2655, 2628]
ch1 : [3185, 3188, 3190, 3186, 3185, 3188, 3187, 3189, 3187, 3186]
ch2 : [1436, 1435, 1434, 1419, 1423, 1439, 1445, 1440, 1431, 1432]
ch3 : [2761, 2759, 2760, 2754, 2749, 2754, 2744, 2745, 2749, 2750]
ch0 : [2666, 2368, 2591, 2644, 2650, 2654, 2635, 2615, 2665, 2648]
ch1 : [3186, 3187, 3187, 3185, 3187, 3186, 3189, 3188, 3186, 3185]
ch2 : [1435, 1442, 1456, 1449, 1458, 1452, 1446, 1461, 1448, 1448]
ch3 : [2740, 2746, 2749, 2749, 2749, 2743, 2743, 2743, 2739, 2741]
ch0 : [2515, 2635, 2652, 2656, 2652, 2609, 2600, 2664, 2339, 2585]
ch1 : [3188, 3185, 3184, 3189, 3184, 3188, 3188, 3185, 3184, 3186]
ch2 : [1460, 1462, 1467, 1462, 1460, 1465, 1452, 1449, 1457, 1470]
ch3 : [2748, 2745, 2743, 2733, 2741, 2744, 2738, 2728, 2731, 2750]
ch0 : [2642, 2652, 2657, 2630, 2645, 2667, 2669, 2523, 2645, 2652]
ch1 : [3186, 3190, 3187, 3187, 3190, 3187, 3184, 3183, 3189, 3189]
ch2 : [1471, 1469, 1471, 1470, 1477, 1463, 1458, 1472, 1479, 1481]
ch3 : [2737, 2734, 2733, 2733, 2730, 2732, 2733, 2733, 2731, 2730]
ch0 : [2655, 2658, 2607, 2596, 2664, 2385, 2574, 2646, 2653, 2658]
ch1 : [3186, 3186, 3186, 3191, 3187, 3185, 3187, 3182, 3187, 3190]
ch2 : [1471, 1483, 1464, 1478, 1463, 1464, 1484, 1488, 1479, 1482]
ch3 : [2720, 2722, 2736, 2732, 2733, 2735, 2739, 2735, 2732, 2727]
ch0 : [2617, 2655, 2668, 2659, 2519, 2637, 2652, 2656, 2664, 2630]
ch1 : [3188, 3183, 3189, 3182, 3183, 3189, 3187, 3191, 3200, 3188]
ch2 : [1477, 1481, 1475, 1471, 1478, 1483, 1484, 1484, 1485, 1476]
ch3 : [2728, 2727, 2724, 2719, 2724, 2724, 2725, 2725, 2722, 2722]
ch0 : [2607, 2663, 2475, 2564, 2640, 2656, 2661, 2643, 2646, 2666]
ch1 : [3189, 3185, 3189, 3185, 3184, 3189, 3189, 3188, 3188, 3187]
ch2 : [1484, 1469, 1469, 1485, 1480, 1483, 1479, 1482, 1479, 1471]
ch3 : [2719, 2717, 2716, 2730, 2724, 2725, 2719, 2722, 2729, 2725]
ch0 : [2664, 2493, 2648, 2641, 2649, 2657, 2623, 2594, 2666, 2516]
ch1 : [3190, 3178, 3186, 3184, 3189, 3189, 3190, 3193, 3190, 3187]
ch2 : [1466, 1478, 1481, 1483, 1479, 1478, 1490, 1477, 1463, 1454]
ch3 : [2733, 2736, 2735, 2736, 2736, 2735, 2736, 2735, 2734, 2735]
ch0 : [2532, 2635, 2650, 2655, 2630, 2641, 2663, 2658, 2464, 2614]
ch1 : [3183, 3181, 3187, 3195, 3188, 3187, 3189, 3184, 3189, 3186]
ch2 : [1479, 1482, 1479, 1474, 1473, 1476, 1454, 1463, 1470, 1470]
ch3 : [2738, 2739, 2739, 2735, 2732, 2722, 2733, 2738, 2737, 2739]
ch0 : [2648, 2651, 2651, 2625, 2569, 2663, 2565, 2512, 2631, 2643]
ch1 : [3191, 3186, 3190, 3191, 3189, 3186, 3183, 3186, 3186, 3187]
ch2 : [1480, 1478, 1470, 1474, 1480, 1460, 1468, 1480, 1481, 1485]
ch3 : [2738, 2735, 2730, 2744, 2735, 2734, 2734, 2740, 2739, 2739]
ch0 : [2650, 2623, 2627, 2657, 2659, 2453, 2607, 2639, 2636, 2648]
ch1 : [3187, 3186, 3187, 3182, 3186, 3182, 3184, 3191, 3188, 3187]
ch2 : [1474, 1474, 1475, 1468, 1466, 1474, 1483, 1481, 1482, 1482]
ch3 : [2736, 2736, 2741, 2740, 2738, 2745, 2745, 2745, 2753, 2743]
ch0 : [2611, 2574, 2653, 2656, 2514, 2620, 2644, 2649, 2626, 2626]
ch1 : [3188, 3189, 3186, 3184, 3184, 3186, 3186, 3176, 3196, 3189]
ch2 : [1476, 1480, 1469, 1468, 1480, 1489, 1488, 1484, 1485, 1483]
ch3 : [2745, 2748, 2744, 2748, 2754, 2757, 2751, 2753, 2752, 2752]
ch0 : [2653, 2636, 2433, 2600, 2623, 2628, 2640, 2626, 2576, 2649]
ch1 : [3185, 3183, 3184, 3188, 3183, 3189, 3188, 3185, 3191, 3187]
ch2 : [1481, 1472, 1481, 1494, 1486, 1489, 1491, 1486, 1491, 1474]
ch3 : [2756, 2756, 2760, 2764, 2761, 2753, 2759, 2757, 2762, 2768]
ch0 : [2635, 2494, 2619, 2639, 2643, 2631, 2615, 2653, 2651, 2405]
ch1 : [3188, 3187, 3185, 3189, 3188, 3189, 3204, 3189, 3198, 3187]
ch2 : [1475, 1481, 1489, 1485, 1488, 1484, 1479, 1482, 1471, 1472]
ch3 : [2761, 2763, 2769, 2765, 2766, 2761, 2764, 2764, 2769, 2772]
ch0 : [2581, 2622, 2633, 2639, 2612, 2580, 2653, 2647, 2470, 2614]
ch1 : [3187, 3184, 3187, 3190, 3201, 3193, 3187, 3185, 3186, 3189]
ch2 : [1483, 1484, 1484, 1477, 1479, 1491, 1468, 1457, 1479, 1482]
ch3 : [2770, 2765, 2768, 2767, 2763, 2768, 2771, 2768, 2773, 2776]
ch0 : [2635, 2645, 2625, 2620, 2647, 2651, 2392, 2585, 2632, 2623]
ch1 : [3188, 3182, 3189, 3191, 3189, 3185, 3187, 3183, 3187, 3188]
ch2 : [1479, 1472, 1479, 1478, 1476, 1463, 1465, 1475, 1479, 1481]
ch3 : [2774, 2776, 2768, 2771, 2772, 2774, 2778, 2779, 2777, 2775]
ch0 : [2640, 2616, 2587, 2659, 2617, 2448, 2598, 2636, 2642, 2636]
ch1 : [3203, 3183, 3192, 3192, 3186, 3181, 3186, 3187, 3185, 3178]
ch2 : [1481, 1476, 1476, 1467, 1461, 1476, 1475, 1474, 1470, 1469]
ch3 : [2772, 2780, 2776, 2778, 2777, 2778, 2778, 2768, 2778, 2776]
ch0 : [2610, 2640, 2647, 2411, 2579, 2633, 2612, 2638, 2603, 2587]
ch1 : [3188, 3189, 3187, 3185, 3191, 3187, 3192, 3192, 3189, 3187]
ch2 : [1467, 1463, 1456, 1460, 1472, 1465, 1466, 1465, 1465, 1458]
ch3 : [2776, 2775, 2781, 2785, 2786, 2779, 2785, 2784, 2785, 2784]
ch0 : [2646, 2648, 2452, 2598, 2625, 2641, 2639, 2591, 2636, 2640]
ch1 : [3188, 3189, 3188, 3187, 3181, 3186, 3190, 3193, 3192, 3186]
ch2 : [1452, 1446, 1459, 1464, 1464, 1456, 1456, 1457, 1471, 1449]
ch3 : [2789, 2790, 2788, 2801, 2791, 2786, 2787, 2787, 2792, 2790]
ch0 : [2480, 2564, 2623, 2619, 2639, 2600, 2614, 2646, 2638, 2408]
ch1 : [3183, 3183, 3184, 3191, 3187, 3188, 3184, 3190, 3183, 3182]
ch2 : [1450, 1459, 1463, 1460, 1460, 1462, 1459, 1460, 1445, 1460]
ch3 : [2793, 2803, 2790, 2805, 2790, 2791, 2797, 2794, 2791, 2796]
ch0 : [2592, 2614, 2638, 2633, 2612, 2604, 2643, 2552, 2552, 2618]
ch1 : [3184, 3185, 3183, 3186, 3191, 3191, 3188, 3187, 3183, 3184]
ch2 : [1464, 1464, 1473, 1458, 1460, 1459, 1453, 1446, 1465, 1466]
ch3 : [2795, 2802, 2796, 2782, 2793, 2797, 2799, 2803, 2804, 2795]
ch0 : [2622, 2632, 2621, 2624, 2644, 2648, 2417, 2582, 2632, 2639]
ch1 : [3187, 3189, 3192, 3189, 3198, 3179, 3183, 3175, 3184, 3186]
ch2 : [1470, 1463, 1457, 1463, 1458, 1446, 1463, 1466, 1472, 1466]
ch3 : [2799, 2800, 2797, 2799, 2790, 2798, 2802, 2808, 2809, 2808]
ch0 : [2632, 2620, 2610, 2648, 2619, 2544, 2623, 2617, 2639, 2631]
ch1 : [3187, 3190, 3191, 3185, 3185, 3185, 3188, 3187, 3187, 3189]
ch2 : [1462, 1465, 1460, 1451, 1451, 1451, 1473, 1465, 1466, 1465]
ch3 : [2801, 2802, 2804, 2806, 2805, 2809, 2796, 2808, 2805, 2802]
ch0 : [2645, 2605, 2568, 2633, 2639, 2639, 2647, 2646, 2648, 2657]
ch1 : [3195, 3186, 3187, 3190, 3173, 3189, 3186, 3194, 3189, 3186]
ch2 : [1454, 1455, 1475, 1477, 1476, 1470, 1467, 1464, 1466, 1457]
ch3 : [2810, 2811, 2811, 2811, 2811, 2810, 2810, 2810, 2813, 2809]
ch0 : [2378, 2598, 2644, 2645, 2647, 2628, 2625, 2654, 2650, 2562]
ch1 : [3183, 3184, 3184, 3184, 3186, 3183, 3189, 3187, 3180, 3188]
ch2 : [1465, 1477, 1474, 1469, 1480, 1468, 1468, 1449, 1450, 1468]
ch3 : [2816, 2816, 2817, 2811, 2803, 2810, 2811, 2812, 2812, 2818]
ch0 : [2639, 2638, 2647, 2648, 2612, 2667, 2619, 2381, 2582, 2630]
ch1 : [3188, 3184, 3189, 3189, 3196, 3191, 3186, 3185, 3180, 3186]
ch2 : [1472, 1468, 1466, 1472, 1468, 1464, 1448, 1462, 1472, 1473]
ch3 : [2815, 2812, 2814, 2813, 2824, 2819, 2814, 2816, 2828, 2822]
ch0 : [2650, 2656, 2629, 2624, 2662, 2662, 2550, 2643, 2638, 2647]
ch1 : [3183, 3187, 3187, 3190, 3187, 3183, 3186, 3196, 3189, 3189]
ch2 : [1468, 1472, 1466, 1468, 1458, 1455, 1473, 1473, 1471, 1471]
ch3 : [2824, 2815, 2807, 2815, 2816, 2818, 2822, 2820, 2819, 2819]
ch0 : [2633, 2629, 2657, 2660, 2366, 2593, 2645, 2649, 2651, 2629]
ch1 : [3190, 3189, 3191, 3189, 3186, 3187, 3189, 3183, 3179, 3188]
ch2 : [1469, 1468, 1468, 1454, 1463, 1474, 1471, 1477, 1468, 1465]
ch3 : [2818, 2822, 2816, 2816, 2820, 2821, 2824, 2822, 2821, 2819]
ch0 : [2619, 2660, 2659, 2540, 2635, 2643, 2651, 2657, 2607, 2617]
ch1 : [3188, 3189, 3190, 3174, 3189, 3186, 3184, 3190, 3194, 3192]
ch2 : [1481, 1461, 1457, 1472, 1476, 1478, 1474, 1476, 1469, 1471]
ch3 : [2818, 2825, 2824, 2824, 2821, 2823, 2822, 2822, 2823, 2825]
ch0 : [2665, 2366, 2580, 2645, 2646, 2652, 2611, 2634, 2663, 2654]
ch1 : [3186, 3185, 3185, 3189, 3188, 3178, 3190, 3177, 3186, 3185]
ch2 : [1456, 1462, 1473, 1467, 1476, 1465, 1470, 1470, 1462, 1455]
ch3 : [2822, 2827, 2823, 2826, 2826, 2822, 2823, 2825, 2822, 2831]
ch0 : [2526, 2629, 2642, 2652, 2638, 2608, 2587, 2659, 2359, 2558]
ch1 : [3180, 3191, 3185, 3190, 3186, 3188, 3188, 3188, 3183, 3185]
ch2 : [1460, 1473, 1471, 1473, 1466, 1468, 1471, 1458, 1455, 1469]
ch3 : [2831, 2829, 2823, 2823, 2824, 2824, 2823, 2826, 2824, 2828]
ch0 : [2636, 2646, 2654, 2610, 2644, 2658, 2646, 2502, 2627, 2644]
ch1 : [3186, 3186, 3185, 3187, 3188, 3189, 3183, 3184, 3194, 3192]
ch2 : [1474, 1471, 1470, 1465, 1469, 1459, 1459, 1468, 1473, 1471]
ch3 : [2830, 2828, 2828, 2819, 2819, 2823, 2826, 2829, 2829, 2827]
ch0 : [2652, 2642, 2604, 2585, 2658, 2438, 2553, 2633, 2648, 2651]
ch1 : [3188, 3192, 3187, 3182, 3182, 3185, 3183, 3185, 3189, 3187]
ch2 : [1469, 1484, 1467, 1467, 1457, 1454, 1471, 1473, 1471, 1469]
ch3 : [2823, 2831, 2825, 2826, 2826, 2837, 2834, 2834, 2842, 2827]
ch0 : [2617, 2638, 2653, 2659, 2478, 2629, 2635, 2647, 2646, 2609]
ch1 : [3192, 3188, 3184, 3185, 3188, 3182, 3182, 3185, 3192, 3189]
ch2 : [1467, 1473, 1462, 1454, 1467, 1468, 1471, 1471, 1470, 1470]
ch3 : [2831, 2833, 2832, 2835, 2846, 2834, 2832, 2830, 2836, 2831]
ch0 : [2580, 2650, 2474, 2533, 2635, 2644, 2649, 2632, 2644, 2656]
ch1 : [3192, 3188, 3187, 3184, 3185, 3187, 3188, 3188, 3192, 3189]
ch2 : [1469, 1451, 1459, 1480, 1475, 1471, 1471, 1461, 1471, 1467]
ch3 : [2844, 2838, 2841, 2835, 2840, 2835, 2829, 2831, 2836, 2833]
ch0 : [2651, 2463, 2611, 2641, 2643, 2643, 2601, 2591, 2655, 2604]
ch1 : [3184, 3183, 3186, 3186, 3186, 3183, 3188, 3190, 3188, 3184]
ch2 : [1458, 1468, 1479, 1478, 1477, 1476, 1477, 1477, 1464, 1467]
ch3 : [2836, 2834, 2835, 2834, 2839, 2832, 2831, 2827, 2826, 2812]
ch0 : [2524, 2638, 2638, 2649, 2633, 2633, 2650, 2655, 2469, 2605]
ch1 : [3181, 3183, 3184, 3187, 3190, 3192, 3188, 3186, 3185, 3186]
ch2 : [1485, 1501, 1487, 1484, 1478, 1480, 1476, 1466, 1474, 1483]
ch3 : [2824, 2843, 2845, 2838, 2827, 2833, 2824, 2832, 2833, 2825]
ch0 : [2643, 2647, 2648, 2628, 2598, 2653, 2623, 2525, 2641, 2645]
ch1 : [3186, 3188, 3188, 3186, 3189, 3183, 3183, 3182, 3183, 3186]
ch2 : [1485, 1482, 1480, 1470, 1476, 1460, 1457, 1476, 1474, 1471]
ch3 : [2827, 2830, 2827, 2839, 2835, 2826, 2824, 2831, 2832, 2829]
ch0 : [2640, 2632, 2650, 2655, 2657, 2464, 2611, 2636, 2621, 2646]
ch1 : [3189, 3183, 3187, 3182, 3186, 3185, 3186, 3185, 3189, 3188]
ch2 : [1471, 1464, 1467, 1466, 1459, 1464, 1470, 1474, 1471, 1471]
ch3 : [2832, 2817, 2821, 2823, 2818, 2830, 2828, 2835, 2825, 2838]
ch0 : [2638, 2595, 2659, 2654, 2520, 2627, 2647, 2649, 2637, 2641]
ch1 : [3183, 3188, 3188, 3179, 3185, 3182, 3192, 3185, 3196, 3192]
ch2 : [1471, 1474, 1459, 1470, 1475, 1478, 1477, 1478, 1475, 1478]
ch3 : [2840, 2840, 2833, 2833, 2831, 2839, 2832, 2834, 2836, 2838]
ch0 : [2659, 2656, 2431, 2610, 2645, 2645, 2650, 2630, 2596, 2657]
ch1 : [3190, 3186, 3181, 3188, 3192, 3188, 3187, 3186, 3190, 3186]
ch2 : [1474, 1463, 1464, 1484, 1479, 1479, 1481, 1476, 1479, 1465]
ch3 : [2836, 2836, 2834, 2830, 2827, 2828, 2820, 2822, 2826, 2826]
ch0 : [2636, 2504, 2629, 2645, 2656, 2652, 2626, 2661, 2662, 2411]
ch1 : [3183, 3182, 3184, 3197, 3187, 3183, 3190, 3188, 3196, 3188]
ch2 : [1463, 1485, 1486, 1483, 1480, 1481, 1481, 1484, 1468, 1475]
ch3 : [2822, 2825, 2824, 2821, 2810, 2807, 2813, 2822, 2829, 2833]
ch0 : [2614, 2647, 2644, 2656, 2634, 2602, 2664, 2663, 2478, 2633]
ch1 : [3186, 3186, 3183, 3189, 3188, 3182, 3188, 3193, 3182, 3183]
ch2 : [1487, 1487, 1488, 1483, 1486, 1484, 1479, 1465, 1483, 1491]
ch3 : [2820, 2829, 2821, 2811, 2820, 2819, 2820, 2820, 2821, 2819]
ch0 : [2657, 2625, 2622, 2659, 2661, 2466, 2618, 2637, 2656, 2646]
ch1 : [3189, 3187, 3189, 3191, 3186, 3188, 3184, 3188, 3189, 3184]
ch2 : [1475, 1477, 1475, 1482, 1462, 1472, 1481, 1476, 1471, 1475]
ch3 : [2796, 2801, 2808, 2809, 2800, 2800, 2803, 2809, 2806, 2800]
ch0 : [2605, 2655, 2656, 2483, 2594, 2635, 2634, 2652, 2622, 2629]
ch1 : [3187, 3197, 3187, 3188, 3185, 3180, 3179, 3186, 3187, 3186]
ch2 : [1471, 1469, 1458, 1459, 1474, 1475, 1471, 1471, 1468, 1468]
ch3 : [2803, 2796, 2803, 2808, 2795, 2790, 2783, 2790, 2794, 2800]
ch0 : [2654, 2664, 2445, 2616, 2641, 2647, 2647, 2619, 2641, 2660]
ch1 : [3182, 3184, 3181, 3184, 3184, 3184, 3187, 3186, 3185, 3181]
ch2 : [1457, 1452, 1469, 1475, 1473, 1471, 1471, 1473, 1472, 1458]
ch3 : [2798, 2793, 2796, 2793, 2785, 2771, 2774, 2782, 2791, 2798]
ch0 : [2584, 2603, 2630, 2645, 2651, 2650, 2657, 2671, 2643, 2460]
ch1 : [3183, 3185, 3186, 3181, 3184, 3188, 3183, 3192, 3186, 3186]
ch2 : [1461, 1476, 1477, 1479, 1474, 1479, 1471, 1469, 1460, 1472]
ch3 : [2804, 2793, 2780, 2783, 2778, 2776, 2786, 2788, 2787, 2783]
ch0 : [2633, 2657, 2664, 2660, 2659, 2652, 2666, 2631, 2607, 2648]
ch1 : [3191, 3184, 3185, 3185, 3189, 3189, 3188, 3183, 3179, 3198]
ch2 : [1478, 1479, 1476, 1473, 1475, 1471, 1464, 1467, 1480, 1485]
ch3 : [2779, 2769, 2765, 2770, 2776, 2779, 2776, 2774, 2771, 2766]
ch0 : [2633, 2663, 2625, 2663, 2684, 2665, 2421, 2612, 2642, 2650]
ch1 : [3189, 3184, 3189, 3186, 3189, 3181, 3186, 3185, 3188, 3186]
ch2 : [1482, 1484, 1482, 1480, 1475, 1471, 1477, 1498, 1486, 1495]
ch3 : [2768, 2769, 2775, 2759, 2757, 2758, 2769, 2771, 2763, 2766]
ch0 : [2653, 2609, 2603, 2657, 2662, 2568, 2635, 2635, 2650, 2649]
ch1 : [3189, 3190, 3186, 3182, 3182, 3186, 3186, 3179, 3191, 3187]
ch2 : [1473, 1481, 1481, 1470, 1475, 1486, 1487, 1489, 1485, 1484]
ch3 : [2757, 2752, 2751, 2743, 2762, 2761, 2755, 2755, 2753, 2751]
ch0 : [2650, 2664, 2658, 2360, 2587, 2631, 2644, 2658, 2613, 2596]
ch1 : [3188, 3189, 3184, 3184, 3183, 3189, 3188, 3183, 3183, 3191]
ch2 : [1485, 1479, 1471, 1480, 1490, 1487, 1486, 1481, 1479, 1480]
ch3 : [2757, 2758, 2759, 2761, 2761, 2756, 2752, 2743, 2748, 2750]
ch0 : [2658, 2653, 2539, 2628, 2643, 2644, 2638, 2607, 2653, 2618]
ch1 : [3190, 3183, 3183, 3185, 3184, 3183, 3191, 3186, 3186, 3183]
ch2 : [1471, 1467, 1485, 1487, 1484, 1482, 1489, 1491, 1493, 1469]
ch3 : [2752, 2758, 2760, 2752, 2743, 2740, 2744, 2749, 2747, 2743]
ch0 : [2372, 2584, 2629, 2641, 2649, 2607, 2614, 2650, 2637, 2507]
ch1 : [3183, 3189, 3187, 3185, 3183, 3189, 3188, 3187, 3185, 3179]
ch2 : [1476, 1488, 1488, 1487, 1476, 1473, 1487, 1475, 1468, 1494]
ch3 : [2748, 2751, 2737, 2747, 2738, 2739, 2735, 2737, 2739, 2742]
ch0 : [2633, 2644, 2622, 2612, 2646, 2647, 2537, 2631, 2641, 2638]
ch1 : [3190, 3188, 3186, 3189, 3187, 3192, 3181, 3183, 3185, 3192]
ch2 : [1481, 1480, 1481, 1484, 1473, 1471, 1481, 1482, 1486, 1483]
ch3 : [2743, 2730, 2737, 2737, 2737, 2738, 2738, 2739, 2734, 2734]
ch0 : [2629, 2594, 2642, 2652, 2321, 2554, 2639, 2640, 2640, 2612]
ch1 : [3188, 3188, 3187, 3182, 3186, 3180, 3183, 3185, 3190, 3185]
ch2 : [1486, 1484, 1483, 1478, 1478, 1489, 1490, 1487, 1486, 1485]
ch3 : [2738, 2744, 2738, 2727, 2723, 2725, 2730, 2733, 2730, 2720]
ch0 : [2621, 2654, 2652, 2517, 2640, 2639, 2645, 2642, 2609, 2606]
ch1 : [3189, 3188, 3183, 3182, 3183, 3184, 3186, 3186, 3192, 3186]
ch2 : [1491, 1479, 1478, 1489, 1496, 1491, 1496, 1504, 1487, 1487]
ch3 : [2728, 2722, 2721, 2726, 2726, 2723, 2723, 2711, 2724, 2725]
ch0 : [2655, 2339, 2552, 2643, 2638, 2649, 2620, 2623, 2658, 2658]
ch1 : [3188, 3179, 3182, 3184, 3185, 3198, 3185, 3190, 3183, 3184]
ch2 : [1481, 1482, 1500, 1502, 1495, 1492, 1491, 1495, 1481, 1485]
ch3 : [2720, 2712, 2734, 2731, 2729, 2724, 2721, 2723, 2717, 2724]
ch0 : [2524, 2639, 2643, 2651, 2648, 2615, 2602, 2651, 2405, 2556]
ch1 : [3180, 3185, 3190, 3187, 3184, 3188, 3184, 3188, 3184, 3181]
ch2 : [1492, 1503, 1496, 1494, 1494, 1495, 1490, 1473, 1484, 1497]
ch3 : [2729, 2727, 2738, 2728, 2717, 2714, 2716, 2719, 2721, 2725]
ch0 : [2638, 2652, 2654, 2622, 2648, 2666, 2662, 2495, 2643, 2652]
ch1 : [3180, 3184, 3188, 3188, 3187, 3187, 3189, 3183, 3184, 3189]
ch2 : [1513, 1494, 1486, 1493, 1492, 1483, 1479, 1487, 1499, 1496]
ch3 : [2729, 2713, 2718, 2711, 2711, 2713, 2715, 2721, 2724, 2730]
ch0 : [2649, 2651, 2628, 2608, 2662, 2519, 2566, 2649, 2650, 2660]
ch1 : [3184, 3188, 3188, 3188, 3187, 3185, 3187, 3188, 3184, 3189]
ch2 : [1499, 1492, 1499, 1493, 1482, 1481, 1497, 1503, 1488, 1496]
ch3 : [2732, 2717, 2720, 2720, 2719, 2724, 2728, 2726, 2732, 2724]
ch0 : [2629, 2651, 2663, 2675, 2502, 2637, 2652, 2659, 2657, 2639]
ch1 : [3188, 3186, 3188, 3179, 3185, 3183, 3189, 3183, 3189, 3188]
ch2 : [1483, 1498, 1501, 1480, 1493, 1497, 1500, 1500, 1497, 1495]
ch3 : [2727, 2724, 2726, 2729, 2732, 2726, 2728, 2731, 2727, 2727]
ch0 : [2577, 2663, 2591, 2539, 2632, 2647, 2653, 2637, 2640, 2660]
ch1 : [3187, 3183, 3175, 3179, 3187, 3180, 3188, 3190, 3186, 3183]
ch2 : [1495, 1487, 1479, 1501, 1502, 1501, 1496, 1495, 1500, 1487]
ch3 : [2729, 2729, 2726, 2729, 2729, 2718, 2727, 2723, 2727, 2737]
ch0 : [2678, 2474, 2632, 2651, 2642, 2652, 2619, 2577, 2664, 2573]
ch1 : [3172, 3188, 3186, 3188, 3187, 3190, 3189, 3188, 3187, 3185]
ch2 : [1482, 1492, 1500, 1503, 1485, 1495, 1492, 1495, 1482, 1478]
ch3 : [2729, 2732, 2728, 2727, 2729, 2726, 2728, 2722, 2722, 2726]
ch0 : [2634, 2654, 2647, 2622, 2592, 2659, 2589, 2488, 2619, 2640]
ch1 : [3187, 3188, 3186, 3191, 3192, 3189, 3183, 3186, 3182, 3188]
ch2 : [1497, 1499, 1499, 1500, 1501, 1487, 1482, 1502, 1503, 1494]
ch3 : [2737, 2733, 2737, 2733, 2740, 2732, 2731, 2740, 2744, 2744]
ch0 : [2646, 2624, 2638, 2657, 2649, 2425, 2603, 2632, 2636, 2648]
ch1 : [3189, 3186, 3187, 3187, 3191, 3186, 3188, 3184, 3189, 3190]
ch2 : [1507, 1496, 1501, 1502, 1490, 1493, 1503, 1510, 1505, 1504]
ch3 : [2740, 2740, 2740, 2741, 2743, 2742, 2745, 2743, 2748, 2747]
ch0 : [2615, 2586, 2655, 2611, 2475, 2605, 2636, 2647, 2633, 2616]
ch1 : [3192, 3189, 3183, 3187, 3181, 3184, 3184, 3186, 3189, 3188]
ch2 : [1503, 1503, 1491, 1483, 1501, 1505, 1501, 1496, 1498, 1499]
ch3 : [2748, 2747, 2743, 2746, 2749, 2751, 2751, 2747, 2746, 2747]
ch0 : [2648, 2651, 2406, 2582, 2628, 2634, 2631, 2614, 2592, 2651]
ch1 : [3187, 3183, 3188, 3187, 3183, 3189, 3184, 3184, 3191, 3186]
ch2 : [1497, 1480, 1499, 1501, 1490, 1494, 1496, 1489, 1490, 1476]
ch3 : [2749, 2754, 2757, 2754, 2757, 2753, 2756, 2749, 2756, 2754]
ch0 : [2645, 2454, 2607, 2641, 2635, 2642, 2594, 2644, 2650, 2396]
ch1 : [3184, 3181, 3180, 3185, 3186, 3189, 3186, 3190, 3184, 3181]
ch2 : [1471, 1485, 1491, 1490, 1484, 1484, 1488, 1486, 1470, 1471]
ch3 : [2754, 2761, 2759, 2762, 2757, 2753, 2756, 2757, 2766, 2764]
ch0 : [2579, 2634, 2627, 2634, 2611, 2606, 2647, 2629, 2461, 2611]
ch1 : [3182, 3185, 3186, 3187, 3190, 3193, 3189, 3185, 3183, 3185]
ch2 : [1489, 1489, 1492, 1487, 1486, 1486, 1484, 1471, 1484, 1493]
ch3 : [2766, 2762, 2759, 2765, 2764, 2765, 2764, 2762, 2770, 2771]
ch0 : [2628, 2636, 2629, 2608, 2637, 2648, 2434, 2579, 2638, 2632]
ch1 : [3187, 3183, 3189, 3187, 3186, 3179, 3188, 3179, 3189, 3188]
ch2 : [1491, 1488, 1488, 1487, 1480, 1476, 1484, 1504, 1493, 1490]
ch3 : [2768, 2770, 2768, 2765, 2769, 2769, 2772, 2774, 2767, 2774]
ch0 : [2634, 2601, 2594, 2648, 2650, 2423, 2588, 2631, 2633, 2639]
ch1 : [3187, 3188, 3186, 3181, 3189, 3184, 3185, 3188, 3187, 3186]
ch2 : [1490, 1474, 1490, 1484, 1473, 1487, 1492, 1481, 1490, 1489]
ch3 : [2771, 2774, 2774, 2773, 2769, 2772, 2777, 2778, 2777, 2776]
ch0 : [2597, 2627, 2643, 2482, 2568, 2614, 2617, 2640, 2596, 2604]
ch1 : [3181, 3187, 3184, 3188, 3185, 3182, 3181, 3192, 3189, 3189]
ch2 : [1486, 1486, 1487, 1477, 1491, 1501, 1486, 1506, 1489, 1488]
ch3 : [2787, 2784, 2771, 2783, 2779, 2780, 2778, 2778, 2781, 2783]
ch0 : [2648, 2633, 2415, 2590, 2618, 2629, 2632, 2588, 2586, 2645]
ch1 : [3183, 3187, 3183, 3182, 3189, 3188, 3192, 3189, 3190, 3186]
ch2 : [1481, 1476, 1486, 1490, 1492, 1491, 1488, 1486, 1488, 1477]
ch3 : [2781, 2771, 2782, 2788, 2783, 2790, 2779, 2782, 2783, 2785]
ch0 : [2586, 2616, 2641, 2630, 2585, 2597, 2636, 2578, 2556, 2622]
ch1 : [3187, 3192, 3192, 3186, 3194, 3192, 3183, 3187, 3191, 3182]
ch2 : [1494, 1492, 1487, 1493, 1487, 1490, 1474, 1479, 1495, 1493]
ch3 : [2788, 2794, 2787, 2786, 2786, 2790, 2793, 2790, 2792, 2787]
ch0 : [2615, 2628, 2601, 2613, 2643, 2566, 2405, 2576, 2616, 2631]
ch1 : [3186, 3185, 3186, 3199, 3187, 3189, 3181, 3182, 3183, 3186]
ch2 : [1493, 1491, 1487, 1490, 1484, 1474, 1472, 1488, 1493, 1491]
ch3 : [2794, 2792, 2789, 2790, 2787, 2790, 2792, 2796, 2796, 2791]
ch0 : [2632, 2575, 2588, 2639, 2599, 2533, 2616, 2625, 2632, 2609]
ch1 : [3185, 3180, 3188, 3185, 3184, 3181, 3187, 3183, 3186, 3187]
ch2 : [1486, 1497, 1486, 1471, 1479, 1493, 1492, 1483, 1491, 1488]
ch3 : [2789, 2788, 2794, 2792, 2791, 2797, 2797, 2796, 2791, 2796]
ch0 : [2612, 2639, 2637, 2369, 2574, 2629, 2628, 2634, 2606, 2594]
ch1 : [3186, 3189, 3186, 3183, 3183, 3187, 3186, 3188, 3187, 3192]
ch2 : [1484, 1484, 1472, 1483, 1497, 1490, 1488, 1492, 1488, 1488]
ch3 : [2791, 2797, 2798, 2795, 2806, 2802, 2801, 2795, 2797, 2796]
ch0 : [2644, 2648, 2540, 2621, 2618, 2633, 2622, 2618, 2638, 2644]
ch1 : [3186, 3192, 3182, 3185, 3187, 3183, 3182, 3195, 3180, 3189]
ch2 : [1478, 1474, 1493, 1496, 1488, 1490, 1490, 1490, 1490, 1471]
ch3 : [2799, 2804, 2803, 2817, 2803, 2801, 2808, 2800, 2804, 2799]
ch0 : [2358, 2569, 2621, 2631, 2641, 2604, 2581, 2644, 2636, 2529]
ch1 : [3185, 3185, 3183, 3188, 3186, 3187, 3192, 3189, 3189, 3183]
ch2 : [1488, 1498, 1491, 1489, 1487, 1488, 1489, 1477, 1475, 1489]
ch3 : [2807, 2805, 2807, 2799, 2801, 2799, 2814, 2804, 2806, 2807]
ch0 : [2605, 2636, 2636, 2619, 2605, 2642, 2608, 2349, 2562, 2640]
ch1 : [3184, 3187, 3186, 3189, 3190, 3193, 3188, 3183, 3183, 3184]
ch2 : [1492, 1493, 1491, 1489, 1489, 1488, 1476, 1483, 1491, 1497]
ch3 : [2806, 2803, 2807, 2805, 2808, 2809, 2804, 2806, 2810, 2811]
ch0 : [2625, 2637, 2607, 2605, 2642, 2639, 2525, 2620, 2626, 2637]
ch1 : [3184, 3187, 3188, 3191, 3190, 3184, 3179, 3183, 3184, 3176]
ch2 : [1490, 1485, 1490, 1477, 1478, 1476, 1491, 1493, 1497, 1491]
ch3 : [2806, 2805, 2812, 2805, 2808, 2813, 2811, 2810, 2811, 2810]
ch0 : [2641, 2609, 2645, 2646, 2324, 2572, 2624, 2633, 2639, 2603]
ch1 : [3188, 3193, 3188, 3183, 3185, 3183, 3180, 3183, 3188, 3188]
ch2 : [1490, 1491, 1492, 1473, 1476, 1510, 1493, 1489, 1489, 1490]
ch3 : [2805, 2808, 2809, 2809, 2806, 2810, 2814, 2812, 2810, 2812]
ch0 : [2594, 2649, 2648, 2511, 2628, 2630, 2636, 2640, 2601, 2613]
ch1 : [3187, 3187, 3188, 3181, 3187, 3187, 3189, 3191, 3189, 3190]
ch2 : [1484, 1473, 1475, 1488, 1492, 1490, 1491, 1490, 1491, 1488]
ch3 : [2812, 2808, 2814, 2818, 2815, 2813, 2810, 2811, 2816, 2814]
ch0 : [2650, 2313, 2564, 2634, 2638, 2641, 2613, 2603, 2652, 2626]
ch1 : [3185, 3184, 3181, 3184, 3181, 3184, 3199, 3186, 3185, 3190]
ch2 : [1474, 1480, 1493, 1495, 1478, 1487, 1489, 1492, 1482, 1479]
ch3 : [2812, 2816, 2810, 2814, 2817, 2814, 2810, 2807, 2812, 2816]
ch0 : [2509, 2623, 2631, 2644, 2643, 2597, 2578, 2648, 2353, 2561]
ch1 : [3181, 3184, 3187, 3186, 3192, 3191, 3186, 3182, 3172, 3178]
ch2 : [1488, 1494, 1495, 1493, 1492, 1492, 1490, 1472, 1485, 1494]
ch3 : [2817, 2820, 2819, 2816, 2819, 2813, 2820, 2814, 2814, 2823]
ch0 : [2629, 2635, 2639, 2624, 2619, 2649, 2649, 2503, 2626, 2634]
ch1 : [3186, 3189, 3186, 3186, 3187, 3185, 3184, 3184, 3186, 3184]
ch2 : [1494, 1493, 1494, 1491, 1486, 1481, 1485, 1496, 1494, 1499]
ch3 : [2819, 2820, 2813, 2814, 2803, 2816, 2815, 2822, 2819, 2817]
ch0 : [2639, 2642, 2601, 2578, 2656, 2366, 2556, 2639, 2640, 2648]
ch1 : [3187, 3187, 3189, 3189, 3188, 3197, 3182, 3194, 3185, 3189]
ch2 : [1496, 1493, 1497, 1494, 1479, 1481, 1497, 1499, 1495, 1494]
ch3 : [2820, 2815, 2817, 2819, 2817, 2817, 2822, 2820, 2824, 2815]
ch0 : [2618, 2626, 2654, 2651, 2499, 2619, 2626, 2642, 2643, 2611]
ch1 : [3191, 3189, 3189, 3179, 3185, 3182, 3180, 3186, 3185, 3196]
ch2 : [1493, 1494, 1489, 1478, 1491, 1499, 1486, 1491, 1498, 1497]
ch3 : [2819, 2815, 2818, 2823, 2821, 2812, 2830, 2820, 2819, 2823]
ch0 : [2588, 2654, 2440, 2548, 2633, 2643, 2649, 2636, 2638, 2661]
ch1 : [3189, 3188, 3188, 3179, 3179, 3183, 3182, 3186, 3187, 3187]
ch2 : [1493, 1482, 1480, 1494, 1497, 1497, 1493, 1492, 1495, 1487]
ch3 : [2818, 2823, 2818, 2828, 2821, 2824, 2820, 2823, 2817, 2821]
ch0 : [2655, 2486, 2625, 2643, 2645, 2644, 2605, 2576, 2654, 2515]
ch1 : [3183, 3189, 3183, 3181, 3182, 3188, 3190, 3191, 3188, 3185]
ch2 : [1478, 1489, 1494, 1497, 1499, 1492, 1488, 1492, 1478, 1479]
ch3 : [2820, 2827, 2826, 2824, 2831, 2823, 2827, 2825, 2823, 2824]
ch0 : [2540, 2632, 2649, 2649, 2625, 2644, 2659, 2659, 2478, 2620]
ch1 : [3182, 3175, 3185, 3187, 3188, 3189, 3191, 3184, 3184, 3186]
ch2 : [1497, 1514, 1495, 1493, 1491, 1493, 1487, 1485, 1490, 1497]
ch3 : [2822, 2829, 2825, 2821, 2822, 2824, 2824, 2826, 2829, 2828]
ch0 : [2642, 2644, 2644, 2619, 2583, 2658, 2568, 2534, 2635, 2644]
ch1 : [3189, 3186, 3187, 3192, 3193, 3187, 3182, 3185, 3183, 3183]
ch2 : [1496, 1494, 1495, 1494, 1494, 1483, 1481, 1497, 1494, 1497]
ch3 : [2826, 2824, 2822, 2828, 2826, 2822, 2821, 2831, 2823, 2828]
ch0 : [2654, 2628, 2644, 2656, 2653, 2462, 2615, 2644, 2648, 2641]
ch1 : [3186, 3189, 3198, 3187, 3186, 3197, 3189, 3185, 3185, 3186]
ch2 : [1493, 1491, 1496, 1490, 1475, 1488, 1498, 1496, 1493, 1492]
ch3 : [2826, 2822, 2825, 2829, 2830, 2831, 2830, 2829, 2830, 2829]
ch0 : [2655, 2656, 2430, 2608, 2641, 2644, 2642, 2615, 2586, 2660]
ch1 : [3187, 3184, 3183, 3190, 3179, 3189, 3188, 3188, 3198, 3182]
ch2 : [1500, 1487, 1482, 1500, 1494, 1495, 1496, 1493, 1496, 1482]
ch3 : [2832, 2837, 2834, 2833, 2835, 2838, 2831, 2829, 2828, 2831]
ch0 : [2602, 2505, 2628, 2643, 2646, 2639, 2627, 2656, 2655, 2443]
ch1 : [3183, 3187, 3184, 3187, 3186, 3184, 3188, 3187, 3183, 3184]
ch2 : [1467, 1495, 1494, 1498, 1495, 1492, 1496, 1491, 1484, 1491]
ch3 : [2828, 2837, 2840, 2833, 2834, 2837, 2832, 2832, 2834, 2836]
ch0 : [2591, 2642, 2625, 2647, 2640, 2583, 2657, 2650, 2503, 2613]
ch1 : [3180, 3187, 3188, 3186, 3185, 3191, 3183, 3185, 3183, 3182]
ch2 : [1503, 1500, 1498, 1497, 1496, 1496, 1484, 1476, 1489, 1503]
ch3 : [2832, 2831, 2835, 2837, 2835, 2837, 2832, 2832, 2837, 2833]
ch0 : [2633, 2650, 2638, 2643, 2654, 2657, 2431, 2591, 2641, 2636]
ch1 : [3190, 3187, 3182, 3190, 3182, 3184, 3183, 3187, 3185, 3188]
ch2 : [1499, 1498, 1496, 1496, 1490, 1482, 1488, 1497, 1498, 1500]
ch3 : [2832, 2839, 2827, 2832, 2830, 2835, 2840, 2836, 2835, 2838]
ch0 : [2649, 2641, 2589, 2660, 2651, 2482, 2624, 2642, 2657, 2645]
ch1 : [3184, 3188, 3191, 3182, 3179, 3185, 3183, 3188, 3185, 3187]
ch2 : [1496, 1488, 1489, 1489, 1474, 1495, 1497, 1482, 1487, 1494]
ch3 : [2835, 2836, 2834, 2834, 2833, 2833, 2835, 2838, 2835, 2838]
ch0 : [2621, 2654, 2654, 2427, 2596, 2641, 2638, 2647, 2613, 2615]
ch1 : [3187, 3183, 3186, 3188, 3187, 3183, 3186, 3192, 3189, 3185]
ch2 : [1491, 1491, 1479, 1483, 1489, 1493, 1488, 1491, 1491, 1492]
ch3 : [2838, 2838, 2838, 2840, 2836, 2835, 2838, 2837, 2829, 2834]
ch0 : [2658, 2659, 2469, 2616, 2647, 2665, 2623, 2605, 2638, 2657]
ch1 : [3187, 3181, 3180, 3187, 3185, 3186, 3190, 3185, 3191, 3184]
ch2 : [1486, 1474, 1496, 1497, 1498, 1491, 1491, 1491, 1493, 1480]
ch3 : [2836, 2830, 2837, 2838, 2835, 2834, 2844, 2833, 2836, 2834]
ch0 : [2423, 2596, 2639, 2635, 2647, 2639, 2630, 2653, 2657, 2452]
ch1 : [3183, 3184, 3172, 3186, 3182, 3187, 3188, 3186, 3186, 3185]
ch2 : [1485, 1495, 1495, 1498, 1489, 1494, 1497, 1485, 1478, 1492]
ch3 : [2844, 2837, 2840, 2826, 2839, 2837, 2838, 2852, 2840, 2852]
ch0 : [2607, 2645, 2645, 2636, 2618, 2653, 2657, 2520, 2573, 2648]
ch1 : [3183, 3183, 3182, 3178, 3187, 3190, 3185, 3183, 3187, 3186]
ch2 : [1499, 1499, 1494, 1495, 1495, 1497, 1483, 1488, 1496, 1501]
ch3 : [2848, 2843, 2839, 2835, 2821, 2838, 2842, 2845, 2845, 2841]
ch0 : [2634, 2644, 2619, 2618, 2661, 2657, 2441, 2603, 2644, 2646]
ch1 : [3189, 3190, 3189, 3186, 3188, 3182, 3185, 3182, 3187, 3189]
ch2 : [1497, 1499, 1495, 1492, 1485, 1480, 1495, 1498, 1500, 1495]
ch3 : [2838, 2838, 2840, 2842, 2840, 2848, 2839, 2844, 2841, 2841]
ch0 : [2650, 2616, 2617, 2662, 2569, 2573, 2641, 2632, 2655, 2634]
ch1 : [3183, 3187, 3187, 3187, 3188, 3179, 3181, 3192, 3192, 3186]
ch2 : [1494, 1494, 1496, 1489, 1486, 1496, 1503, 1498, 1497, 1491]
ch3 : [2835, 2835, 2840, 2833, 2840, 2839, 2827, 2843, 2838, 2834]
ch0 : [2639, 2663, 2637, 2413, 2600, 2636, 2649, 2651, 2619, 2608]
ch1 : [3186, 3182, 3184, 3181, 3183, 3187, 3186, 3187, 3190, 3188]
ch2 : [1495, 1489, 1481, 1491, 1502, 1501, 1500, 1493, 1495, 1500]
ch3 : [2836, 2835, 2819, 2830, 2831, 2837, 2838, 2826, 2828, 2826]
ch0 : [2655, 2589, 2581, 2639, 2629, 2645, 2631, 2633, 2659, 2619]
ch1 : [3183, 3188, 3185, 3183, 3186, 3182, 3188, 3188, 3189, 3181]
ch2 : [1480, 1481, 1500, 1499, 1496, 1482, 1495, 1496, 1492, 1480]
ch3 : [2822, 2824, 2832, 2834, 2835, 2827, 2821, 2830, 2828, 2837]
ch0 : [2396, 2592, 2646, 2645, 2642, 2628, 2610, 2656, 2652, 2563]
ch1 : [3185, 3176, 3185, 3185, 3192, 3184, 3188, 3186, 3183, 3186]
ch2 : [1495, 1501, 1498, 1498, 1499, 1491, 1501, 1488, 1480, 1503]
ch3 : [2831, 2833, 2839, 2823, 2833, 2844, 2839, 2834, 2830, 2816]
ch0 : [2624, 2627, 2641, 2619, 2634, 2655, 2637, 2356, 2582, 2637]
ch1 : [3181, 3185, 3187, 3198, 3187, 3186, 3184, 3183, 3182, 3185]
ch2 : [1503, 1500, 1501, 1498, 1496, 1494, 1481, 1476, 1504, 1500]
ch3 : [2835, 2841, 2835, 2833, 2833, 2836, 2845, 2843, 2835, 2830]
ch0 : [2637, 2644, 2610, 2605, 2652, 2617, 2543, 2623, 2638, 2639]
ch1 : [3200, 3182, 3189, 3186, 3192, 3188, 3186, 3184, 3188, 3189]
ch2 : [1499, 1499, 1498, 1495, 1483, 1480, 1497, 1488, 1497, 1497]
ch3 : [2834, 2837, 2840, 2832, 2840, 2838, 2834, 2819, 2807, 2825]
ch0 : [2636, 2616, 2651, 2644, 2363, 2574, 2638, 2640, 2644, 2614]
ch1 : [3186, 3188, 3188, 3175, 3195, 3183, 3182, 3182, 3186, 3188]
ch2 : [1497, 1496, 1499, 1478, 1489, 1499, 1495, 1496, 1496, 1499]
ch3 : [2832, 2828, 2838, 2838, 2828, 2833, 2824, 2822, 2813, 2814]
ch0 : [2606, 2651, 2648, 2521, 2634, 2635, 2644, 2621, 2609, 2643]
ch1 : [3189, 3187, 3188, 3182, 3181, 3185, 3189, 3191, 3189, 3188]
ch2 : [1495, 1489, 1476, 1498, 1500, 1498, 1497, 1499, 1500, 1495]
ch3 : [2826, 2828, 2827, 2822, 2816, 2821, 2824, 2823, 2819, 2814]
ch0 : [2651, 2338, 2562, 2640, 2636, 2642, 2609, 2611, 2649, 2641]
ch1 : [3185, 3185, 3185, 3184, 3188, 3186, 3185, 3182, 3182, 3186]
ch2 : [1481, 1488, 1502, 1502, 1497, 1494, 1496, 1498, 1486, 1490]
ch3 : [2813, 2817, 2826, 2823, 2828, 2820, 2820, 2825, 2817, 2812]
ch0 : [2532, 2617, 2629, 2642, 2647, 2618, 2642, 2651, 2322, 2561]
ch1 : [3183, 3186, 3185, 3189, 3182, 3189, 3183, 3185, 3187, 3185]
ch2 : [1491, 1508, 1506, 1499, 1502, 1500, 1499, 1486, 1486, 1503]
ch3 : [2811, 2807, 2811, 2820, 2822, 2818, 2817, 2807, 2809, 2810]
ch0 : [2632, 2639, 2641, 2608, 2610, 2646, 2645, 2513, 2624, 2622]
ch1 : [3186, 3188, 3186, 3191, 3188, 3186, 3186, 3178, 3179, 3184]
ch2 : [1505, 1500, 1500, 1497, 1493, 1483, 1487, 1496, 1502, 1503]
ch3 : [2814, 2808, 2804, 2803, 2803, 2809, 2810, 2812, 2801, 2806]
ch0 : [2638, 2633, 2589, 2594, 2649, 2325, 2555, 2636, 2632, 2645]
ch1 : [3182, 3186, 3181, 3189, 3185, 3187, 3184, 3183, 3190, 3186]
ch2 : [1501, 1499, 1497, 1500, 1485, 1487, 1506, 1519, 1498, 1496]
ch3 : [2791, 2789, 2789, 2791, 2791, 2782, 2787, 2790, 2789, 2783]
ch0 : [2615, 2608, 2648, 2653, 2509, 2624, 2631, 2640, 2639, 2595]
ch1 : [3176, 3184, 3189, 3184, 3183, 3188, 3184, 3187, 3187, 3185]
ch2 : [1499, 1502, 1491, 1484, 1497, 1502, 1501, 1500, 1500, 1500]
ch3 : [2787, 2780, 2776, 2778, 2785, 2784, 2784, 2783, 2784, 2778]
ch0 : [2645, 2496, 2618, 2628, 2634, 2641, 2581, 2564, 2646, 2410]
ch1 : [3183, 3183, 3184, 3186, 3187, 3188, 3190, 3199, 3185, 3193]
ch2 : [1482, 1492, 1500, 1500, 1495, 1496, 1495, 1498, 1483, 1488]
ch3 : [2771, 2760, 2765, 2774, 2771, 2769, 2771, 2765, 2760, 2756]
ch0 : [2535, 2620, 2634, 2641, 2620, 2617, 2653, 2635, 2474, 2612]
ch1 : [3181, 3184, 3184, 3189, 3190, 3189, 3187, 3186, 3184, 3187]
ch2 : [1500, 1503, 1502, 1497, 1496, 1497, 1488, 1489, 1493, 1502]
ch3 : [2769, 2769, 2767, 2760, 2754, 2755, 2760, 2768, 2758, 2764]
ch0 : [2625, 2636, 2641, 2596, 2567, 2640, 2467, 2525, 2629, 2627]
ch1 : [3184, 3189, 3187, 3188, 3188, 3186, 3186, 3182, 3182, 3184]
ch2 : [1502, 1499, 1500, 1495, 1505, 1488, 1484, 1507, 1508, 1510]
ch3 : [2758, 2758, 2755, 2754, 2746, 2745, 2752, 2750, 2750, 2759]
ch0 : [2643, 2611, 2621, 2650, 2644, 2460, 2607, 2636, 2640, 2639]
ch1 : [3185, 3186, 3188, 3182, 3185, 3183, 3181, 3188, 3184, 3188]
ch2 : [1499, 1509, 1504, 1496, 1492, 1501, 1515, 1517, 1510, 1511]
ch3 : [2755, 2748, 2752, 2747, 2750, 2752, 2754, 2754, 2754, 2751]
ch0 : [2598, 2575, 2645, 2582, 2510, 2621, 2631, 2643, 2621, 2626]
ch1 : [3190, 3187, 3189, 3188, 3181, 3187, 3184, 3189, 3188, 3185]
ch2 : [1513, 1516, 1499, 1497, 1512, 1518, 1521, 1511, 1517, 1510]
ch3 : [2751, 2755, 2748, 2752, 2757, 2753, 2748, 2744, 2739, 2728]
ch0 : [2649, 2646, 2454, 2594, 2633, 2637, 2642, 2605, 2576, 2648]
ch1 : [3186, 3183, 3188, 3183, 3188, 3184, 3186, 3190, 3190, 3183]
ch2 : [1505, 1498, 1516, 1520, 1523, 1517, 1514, 1515, 1515, 1506]
ch3 : [2741, 2747, 2748, 2742, 2742, 2743, 2742, 2736, 2742, 2744]
ch0 : [2622, 2510, 2626, 2636, 2644, 2627, 2638, 2653, 2647, 2463]
ch1 : [3181, 3181, 3182, 3186, 3189, 3179, 3185, 3187, 3179, 3182]
ch2 : [1503, 1518, 1517, 1518, 1514, 1516, 1522, 1506, 1502, 1512]
ch3 : [2746, 2747, 2748, 2747, 2740, 2734, 2730, 2736, 2753, 2754]
ch0 : [2609, 2640, 2635, 2645, 2622, 2592, 2658, 2642, 2520, 2634]
ch1 : [3184, 3185, 3196, 3189, 3191, 3189, 3189, 3182, 3171, 3184]
ch2 : [1512, 1516, 1520, 1513, 1512, 1522, 1500, 1498, 1517, 1533]
ch3 : [2747, 2747, 2743, 2748, 2742, 2745, 2739, 2742, 2745, 2750]
ch0 : [2643, 2653, 2650, 2645, 2660, 2660, 2450, 2623, 2662, 2638]
ch1 : [3186, 3173, 3187, 3186, 3188, 3184, 3184, 3186, 3185, 3192]
ch2 : [1518, 1514, 1531, 1516, 1506, 1515, 1501, 1514, 1514, 1513]
ch3 : [2746, 2745, 2744, 2746, 2746, 2747, 2753, 2746, 2742, 2742]
ch0 : [2645, 2623, 2594, 2659, 2639, 2499, 2591, 2638, 2653, 2644]
ch1 : [3190, 3187, 3187, 3185, 3189, 3187, 3185, 3184, 3188, 3189]
ch2 : [1515, 1511, 1523, 1499, 1493, 1510, 1516, 1512, 1511, 1509]
ch3 : [2744, 2740, 2747, 2744, 2745, 2741, 2745, 2742, 2741, 2741]
ch0 : [2610, 2658, 2659, 2403, 2565, 2629, 2623, 2636, 2605, 2582]
ch1 : [3186, 3186, 3183, 3185, 3183, 3180, 3183, 3187, 3188, 3188]
ch2 : [1508, 1509, 1502, 1503, 1514, 1513, 1515, 1503, 1507, 1508]
ch3 : [2738, 2741, 2750, 2748, 2743, 2744, 2746, 2742, 2758, 2743]
ch0 : [2403, 2565, 2617, 2609, 2629, 2600, 2584, 2642, 2563, 2463]
ch1 : [3186, 3188, 3188, 3186, 3188, 3188, 3187, 3188, 3185, 3179]
ch2 : [1500, 1511, 1513, 1508, 1509, 1508, 1509, 1500, 1486, 1512]
ch3 : [2756, 2749, 2753, 2749, 2749, 2753, 2754, 2753, 2747, 2754]
ch0 : [2595, 2613, 2641, 2635, 2587, 2635, 2641, 2399, 2566, 2604]
ch1 : [3194, 3188, 3188, 3186, 3189, 3188, 3185, 3184, 3183, 3186]
ch2 : [1515, 1513, 1507, 1508, 1499, 1513, 1493, 1498, 1508, 1511]
ch3 : [2753, 2762, 2747, 2748, 2750, 2752, 2753, 2754, 2761, 2756]
ch0 : [2618, 2631, 2594, 2587, 2645, 2623, 2437, 2595, 2630, 2636]
ch1 : [3186, 3182, 3188, 3182, 3187, 3188, 3182, 3187, 3180, 3187]
ch2 : [1507, 1507, 1508, 1506, 1502, 1492, 1502, 1510, 1510, 1512]
ch3 : [2755, 2755, 2759, 2759, 2759, 2756, 2749, 2763, 2748, 2762]
ch0 : [2619, 2582, 2644, 2635, 2442, 2574, 2632, 2631, 2637, 2604]
ch1 : [3185, 3184, 3192, 3184, 3192, 3185, 3185, 3188, 3187, 3186]
ch2 : [1506, 1506, 1508, 1498, 1497, 1507, 1515, 1525, 1510, 1510]
ch3 : [2754, 2763, 2760, 2767, 2765, 2767, 2766, 2764, 2764, 2768]
ch0 : [2595, 2640, 2611, 2426, 2602, 2625, 2633, 2625, 2600, 2613]
ch1 : [3188, 3189, 3189, 3181, 3183, 3185, 3188, 3187, 3187, 3183]
ch2 : [1503, 1500, 1489, 1507, 1513, 1507, 1508, 1502, 1510, 1508]
ch3 : [2769, 2765, 2766, 2770, 2771, 2772, 2769, 2767, 2763, 2770]
ch0 : [2642, 2535, 2558, 2615, 2618, 2623, 2611, 2600, 2646, 2597]
ch1 : [3185, 3187, 3183, 3185, 3189, 3190, 3192, 3186, 3187, 3185]
ch2 : [1493, 1495, 1516, 1509, 1509, 1510, 1506, 1506, 1503, 1492]
ch3 : [2774, 2773, 2774, 2772, 2770, 2764, 2773, 2777, 2777, 2771]
ch0 : [2628, 2614, 2630, 2605, 2618, 2653, 2638, 2388, 2591, 2618]
ch1 : [3183, 3188, 3187, 3184, 3201, 3192, 3184, 3181, 3184, 3188]
ch2 : [1510, 1512, 1503, 1504, 1506, 1497, 1484, 1505, 1505, 1507]
ch3 : [2786, 2781, 2780, 2781, 2782, 2782, 2782, 2785, 2788, 2787]
ch0 : [2625, 2629, 2599, 2587, 2637, 2589, 2543, 2613, 2613, 2629]
ch1 : [3183, 3185, 3188, 3187, 3186, 3184, 3183, 3184, 3185, 3185]
ch2 : [1506, 1501, 1503, 1503, 1489, 1489, 1505, 1506, 1509, 1502]
ch3 : [2791, 2781, 2783, 2785, 2786, 2788, 2792, 2787, 2797, 2785]
ch0 : [2607, 2615, 2639, 2608, 2392, 2573, 2623, 2628, 2626, 2605]
ch1 : [3186, 3188, 3186, 3186, 3184, 3181, 3185, 3187, 3192, 3187]
ch2 : [1503, 1499, 1497, 1491, 1499, 1512, 1514, 1502, 1498, 1512]
ch3 : [2786, 2790, 2781, 2786, 2794, 2795, 2793, 2794, 2788, 2788]
ch0 : [2580, 2639, 2621, 2538, 2609, 2621, 2628, 2624, 2601, 2639]
ch1 : [3187, 3183, 3173, 3183, 3184, 3189, 3187, 3192, 3189, 3179]
ch2 : [1501, 1490, 1489, 1506, 1510, 1504, 1503, 1501, 1502, 1498]
ch3 : [2791, 2796, 2794, 2797, 2796, 2792, 2800, 2791, 2796, 2801]
ch0 : [2633, 2366, 2557, 2608, 2623, 2628, 2592, 2599, 2637, 2635]
ch1 : [3188, 3187, 3182, 3185, 3184, 3188, 3192, 3188, 3189, 3179]
ch2 : [1488, 1499, 1507, 1510, 1509, 1503, 1503, 1501, 1490, 1490]
ch3 : [2782, 2809, 2806, 2798, 2797, 2795, 2791, 2797, 2796, 2805]
ch0 : [2518, 2628, 2615, 2629, 2614, 2614, 2632, 2641, 2334, 2560]
ch1 : [3181, 3185, 3182, 3187, 3186, 3189, 3191, 3187, 3184, 3186]
ch2 : [1504, 1502, 1508, 1503, 1507, 1503, 1502, 1491, 1494, 1508]
ch3 : [2802, 2796, 2801, 2799, 2797, 2801, 2801, 2795, 2794, 2803]
ch0 : [2627, 2627, 2637, 2594, 2610, 2642, 2637, 2509, 2627, 2611]
ch1 : [3183, 3189, 3185, 3190, 3188, 3187, 3183, 3182, 3187, 3184]
ch2 : [1506, 1502, 1502, 1505, 1507, 1493, 1491, 1505, 1507, 1505]
ch3 : [2811, 2801, 2802, 2797, 2800, 2800, 2803, 2804, 2801, 2804]
ch0 : [2628, 2623, 2602, 2638, 2641, 2325, 2556, 2630, 2626, 2636]
ch1 : [3190, 3188, 3185, 3187, 3189, 3183, 3180, 3182, 3183, 3188]
ch2 : [1502, 1505, 1502, 1503, 1488, 1493, 1502, 1509, 1501, 1501]
ch3 : [2799, 2802, 2803, 2802, 2802, 2802, 2806, 2803, 2806, 2802]
ch0 : [2596, 2590, 2644, 2650, 2509, 2610, 2615, 2630, 2614, 2573]
ch1 : [3183, 3184, 3189, 3188, 3182, 3184, 3189, 3186, 3185, 3190]
ch2 : [1501, 1504, 1492, 1480, 1503, 1506, 1506, 1502, 1502, 1508]
ch3 : [2801, 2807, 2805, 2808, 2806, 2815, 2803, 2807, 2805, 2804]
ch0 : [2623, 2642, 2313, 2547, 2609, 2634, 2628, 2587, 2593, 2639]
ch1 : [3187, 3184, 3183, 3179, 3185, 3187, 3189, 3188, 3191, 3187]
ch2 : [1503, 1488, 1493, 1507, 1509, 1506, 1503, 1509, 1502, 1494]
ch3 : [2803, 2805, 2806, 2810, 2813, 2810, 2805, 2805, 2812, 2816]
ch0 : [2521, 2613, 2631, 2632, 2608, 2605, 2640, 2617, 2495, 2603]
ch1 : [3179, 3183, 3188, 3184, 3191, 3185, 3200, 3185, 3179, 3186]
ch2 : [1509, 1513, 1501, 1507, 1503, 1503, 1495, 1487, 1505, 1506]
ch3 : [2800, 2824, 2812, 2808, 2804, 2803, 2808, 2811, 2811, 2814]
ch0 : [2622, 2629, 2625, 2571, 2565, 2637, 2345, 2541, 2611, 2621]
ch1 : [3187, 3186, 3187, 3187, 3189, 3185, 3185, 3177, 3184, 3184]
ch2 : [1506, 1504, 1502, 1501, 1503, 1487, 1489, 1504, 1508, 1503]
ch3 : [2807, 2811, 2810, 2811, 2814, 2809, 2812, 2825, 2817, 2813]
ch0 : [2631, 2596, 2606, 2639, 2652, 2472, 2609, 2620, 2623, 2630]
ch1 : [3184, 3191, 3188, 3190, 3183, 3185, 3178, 3187, 3186, 3189]
ch2 : [1502, 1502, 1504, 1491, 1491, 1500, 1505, 1508, 1503, 1501]
ch3 : [2814, 2811, 2813, 2814, 2819, 2813, 2817, 2824, 2822, 2815]
ch0 : [2589, 2566, 2637, 2455, 2515, 2613, 2630, 2636, 2592, 2613]
ch1 : [3189, 3190, 3179, 3184, 3185, 3184, 3186, 3186, 3186, 3183]
ch2 : [1500, 1510, 1486, 1492, 1507, 1507, 1501, 1500, 1499, 1501]
ch3 : [2811, 2815, 2816, 2817, 2829, 2815, 2818, 2817, 2812, 2816]
ch0 : [2648, 2643, 2450, 2599, 2624, 2631, 2625, 2596, 2567, 2643]
ch1 : [3185, 3184, 3182, 3185, 3187, 3187, 3189, 3192, 3188, 3186]
ch2 : [1493, 1484, 1499, 1504, 1512, 1505, 1500, 1505, 1502, 1490]
ch3 : [2818, 2819, 2820, 2818, 2814, 2820, 2820, 2816, 2824, 2817]
ch0 : [2497, 2519, 2617, 2630, 2636, 2612, 2630, 2644, 2648, 2446]
ch1 : [3182, 3181, 3187, 3183, 3190, 3184, 3191, 3186, 3187, 3188]
ch2 : [1484, 1506, 1508, 1493, 1502, 1503, 1505, 1496, 1489, 1498]
ch3 : [2818, 2821, 2823, 2821, 2824, 2816, 2816, 2815, 2815, 2820]
ch0 : [2593, 2623, 2632, 2631, 2605, 2557, 2644, 2584, 2486, 2620]
ch1 : [3190, 3192, 3179, 3198, 3182, 3184, 3188, 3186, 3181, 3183]
ch2 : [1503, 1503, 1506, 1501, 1506, 1502, 1491, 1488, 1506, 1508]
ch3 : [2824, 2819, 2820, 2818, 2819, 2824, 2818, 2815, 2815, 2821]
ch0 : [2622, 2638, 2619, 2597, 2638, 2636, 2417, 2598, 2627, 2634]
ch1 : [3183, 3187, 3191, 3190, 3189, 3195, 3183, 3184, 3189, 3189]
ch2 : [1504, 1502, 1499, 1504, 1500, 1488, 1497, 1512, 1506, 1508]
ch3 : [2819, 2821, 2818, 2818, 2821, 2824, 2823, 2821, 2832, 2819]
ch0 : [2635, 2596, 2565, 2644, 2647, 2489, 2610, 2631, 2640, 2625]
ch1 : [3188, 3188, 3191, 3189, 3181, 3176, 3182, 3179, 3179, 3187]
ch2 : [1505, 1506, 1509, 1492, 1487, 1504, 1510, 1502, 1504, 1502]
ch3 : [2817, 2819, 2820, 2832, 2830, 2824, 2822, 2822, 2815, 2817]
ch0 : [2619, 2648, 2644, 2424, 2604, 2626, 2631, 2630, 2607, 2591]
ch1 : [3183, 3183, 3185, 3183, 3177, 3187, 3187, 3186, 3193, 3201]
ch2 : [1501, 1495, 1477, 1494, 1505, 1506, 1507, 1508, 1504, 1505]
ch3 : [2822, 2823, 2826, 2822, 2812, 2823, 2820, 2826, 2821, 2824]
ch0 : [2650, 2569, 2487, 2616, 2631, 2636, 2633, 2598, 2645, 2644]
ch1 : [3187, 3182, 3181, 3185, 3185, 3191, 3186, 3188, 3182, 3192]
ch2 : [1493, 1489, 1513, 1513, 1507, 1502, 1503, 1501, 1508, 1492]
ch3 : [2822, 2823, 2826, 2830, 2832, 2822, 2823, 2826, 2827, 2827]
ch0 : [2414, 2588, 2632, 2623, 2639, 2593, 2602, 2648, 2634, 2474]
ch1 : [3179, 3185, 3189, 3189, 3187, 3188, 3190, 3187, 3188, 3185]
ch2 : [1501, 1508, 1507, 1507, 1508, 1503, 1505, 1497, 1489, 1506]
ch3 : [2830, 2831, 2828, 2829, 2827, 2828, 2823, 2829, 2828, 2827]
ch0 : [2605, 2637, 2634, 2640, 2608, 2641, 2643, 2422, 2578, 2638]
ch1 : [3185, 3185, 3182, 3187, 3198, 3183, 3184, 3182, 3183, 3187]
ch2 : [1505, 1509, 1502, 1505, 1508, 1501, 1493, 1503, 1509, 1511]
ch3 : [2820, 2829, 2822, 2826, 2822, 2823, 2827, 2829, 2830, 2825]
ch0 : [2622, 2637, 2611, 2593, 2641, 2647, 2453, 2599, 2636, 2640]
ch1 : [3187, 3189, 3190, 3188, 3187, 3182, 3182, 3183, 3184, 3184]
ch2 : [1514, 1503, 1510, 1509, 1497, 1489, 1509, 1509, 1518, 1510]
ch3 : [2831, 2828, 2826, 2820, 2824, 2823, 2825, 2824, 2830, 2833]
ch0 : [2643, 2609, 2635, 2646, 2414, 2575, 2627, 2624, 2639, 2608]
ch1 : [3187, 3188, 3187, 3187, 3189, 3182, 3183, 3186, 3187, 3189]
ch2 : [1519, 1510, 1511, 1497, 1499, 1508, 1511, 1514, 1510, 1510]
ch3 : [2820, 2816, 2814, 2821, 2829, 2832, 2838, 2842, 2829, 2827]
ch0 : [2598, 2647, 2640, 2441, 2607, 2632, 2644, 2631, 2591, 2633]
ch1 : [3192, 3189, 3184, 3182, 3185, 3185, 3186, 3190, 3191, 3187]
ch2 : [1505, 1502, 1501, 1510, 1515, 1516, 1509, 1510, 1504, 1509]
ch3 : [2826, 2822, 2828, 2833, 2834, 2837, 2836, 2828, 2830, 2827]
ch0 : [2658, 2466, 2576, 2631, 2617, 2637, 2606, 2599, 2643, 2640]
ch1 : [3183, 3174, 3186, 3181, 3183, 3190, 3186, 3190, 3186, 3178]
ch2 : [1510, 1501, 1516, 1510, 1511, 1508, 1506, 1516, 1503, 1494]
ch3 : [2831, 2824, 2830, 2840, 2838, 2823, 2824, 2828, 2832, 2826]
ch0 : [2419, 2602, 2623, 2640, 2630, 2597, 2629, 2643, 2604, 2609]
ch1 : [3183, 3183, 3185, 3189, 3186, 3187, 3187, 3186, 3187, 3179]
ch2 : [1503, 1514, 1516, 1510, 1513, 1509, 1513, 1496, 1498, 1511]
ch3 : [2830, 2833, 2833, 2825, 2828, 2827, 2830, 2837, 2824, 2826]
ch0 : [2635, 2629, 2645, 2635, 2629, 2651, 2610, 2418, 2608, 2647]
ch1 : [3188, 3187, 3187, 3187, 3187, 3188, 3183, 3184, 3185, 3182]
ch2 : [1511, 1505, 1511, 1510, 1510, 1500, 1497, 1506, 1514, 1513]
ch3 : [2834, 2822, 2815, 2821, 2836, 2835, 2815, 2820, 2819, 2820]
ch0 : [2648, 2648, 2601, 2589, 2650, 2599, 2572, 2642, 2637, 2644]
ch1 : [3188, 3182, 3187, 3191, 3182, 3181, 3182, 3188, 3181, 3186]
ch2 : [1510, 1502, 1504, 1503, 1498, 1500, 1511, 1511, 1513, 1503]
ch3 : [2819, 2819, 2818, 2814, 2804, 2824, 2827, 2831, 2832, 2823]
ch0 : [2625, 2629, 2647, 2648, 2401, 2597, 2635, 2641, 2640, 2592]
ch1 : [3189, 3187, 3189, 3177, 3181, 3179, 3184, 3183, 3186, 3192]
ch2 : [1510, 1508, 1503, 1492, 1503, 1510, 1504, 1509, 1504, 1505]
ch3 : [2825, 2828, 2827, 2829, 2831, 2836, 2840, 2839, 2837, 2848]
ch0 : [2609, 2651, 2643, 2552, 2612, 2611, 2633, 2606, 2606, 2649]
ch1 : [3183, 3190, 3183, 3182, 3187, 3189, 3187, 3190, 3187, 3186]
ch2 : [1503, 1497, 1493, 1505, 1509, 1504, 1506, 1509, 1501, 1498]
ch3 : [2837, 2827, 2832, 2837, 2822, 2819, 2824, 2825, 2828, 2826]
ch0 : [2624, 2349, 2576, 2617, 2624, 2636, 2601, 2598, 2641, 2631]
ch1 : [3187, 3184, 3183, 3180, 3183, 3190, 3186, 3187, 3196, 3184]
ch2 : [1491, 1501, 1507, 1510, 1507, 1504, 1505, 1509, 1499, 1495]
ch3 : [2825, 2816, 2810, 2808, 2814, 2822, 2813, 2812, 2813, 2820]
ch0 : [2542, 2607, 2623, 2623, 2623, 2599, 2641, 2634, 2333, 2543]
ch1 : [3183, 3183, 3187, 3190, 3189, 3192, 3189, 3186, 3172, 3180]
ch2 : [1504, 1507, 1508, 1507, 1507, 1508, 1506, 1487, 1505, 1503]
ch3 : [2815, 2816, 2818, 2822, 2817, 2814, 2813, 2814, 2819, 2822]
ch0 : [2618, 2628, 2631, 2596, 2586, 2629, 2636, 2517, 2606, 2623]
ch1 : [3186, 3183, 3186, 3198, 3189, 3190, 3180, 3186, 3185, 3188]
ch2 : [1507, 1506, 1507, 1507, 1509, 1498, 1492, 1508, 1513, 1508]
ch3 : [2819, 2820, 2814, 2815, 2815, 2816, 2815, 2815, 2813, 2809]
ch0 : [2593, 2602, 2645, 2611, 2507, 2620, 2627, 2630, 2623, 2588]
ch1 : [3186, 3191, 3185, 3194, 3185, 3183, 3186, 3183, 3186, 3191]
ch2 : [1507, 1507, 1497, 1494, 1505, 1513, 1506, 1506, 1506, 1501]
ch3 : [2798, 2813, 2810, 2797, 2794, 2795, 2794, 2804, 2798, 2790]
ch0 : [2635, 2639, 2335, 2558, 2627, 2630, 2635, 2609, 2612, 2648]
ch1 : [3188, 3189, 3179, 3175, 3188, 3185, 3187, 3186, 3185, 3185]
ch2 : [1506, 1492, 1497, 1509, 1510, 1507, 1507, 1503, 1505, 1497]
ch3 : [2798, 2797, 2796, 2798, 2800, 2789, 2774, 2783, 2786, 2785]
ch0 : [2637, 2495, 2612, 2630, 2637, 2632, 2596, 2559, 2645, 2321]
ch1 : [3191, 3182, 3184, 3189, 3187, 3200, 3189, 3193, 3189, 3184]
ch2 : [1491, 1505, 1511, 1509, 1510, 1510, 1508, 1509, 1495, 1497]
ch3 : [2791, 2796, 2796, 2792, 2784, 2786, 2797, 2786, 2786, 2788]
ch0 : [2550, 2622, 2632, 2640, 2613, 2605, 2643, 2635, 2485, 2609]
ch1 : [3181, 3172, 3186, 3188, 3184, 3184, 3181, 3182, 3186, 3182]
ch2 : [1508, 1515, 1512, 1492, 1509, 1509, 1501, 1495, 1504, 1517]
ch3 : [2792, 2794, 2795, 2787, 2791, 2787, 2787, 2780, 2790, 2787]
ch0 : [2619, 2635, 2631, 2592, 2567, 2651, 2360, 2525, 2618, 2633]
ch1 : [3187, 3187, 3188, 3192, 3188, 3185, 3187, 3182, 3183, 3188]
ch2 : [1513, 1512, 1510, 1514, 1513, 1497, 1502, 1518, 1518, 1515]
ch3 : [2789, 2783, 2782, 2781, 2772, 2761, 2775, 2780, 2788, 2781]
ch0 : [2630, 2598, 2605, 2642, 2634, 2455, 2603, 2632, 2637, 2630]
ch1 : [3189, 3192, 3192, 3186, 3179, 3186, 3179, 3184, 3189, 3192]
ch2 : [1526, 1519, 1515, 1512, 1502, 1519, 1519, 1525, 1521, 1519]
ch3 : [2771, 2770, 2767, 2773, 2774, 2776, 2779, 2778, 2779, 2780]
ch0 : [2597, 2568, 2643, 2434, 2524, 2612, 2629, 2638, 2608, 2614]
ch1 : [3188, 3194, 3186, 3186, 3178, 3187, 3179, 3192, 3186, 3189]
ch2 : [1513, 1525, 1507, 1511, 1522, 1526, 1524, 1523, 1520, 1523]
ch3 : [2781, 2777, 2780, 2779, 2783, 2785, 2785, 2777, 2775, 2774]
ch0 : [2636, 2642, 2452, 2597, 2624, 2636, 2633, 2594, 2564, 2642]
ch1 : [3186, 3186, 3183, 3184, 3184, 3181, 3191, 3190, 3188, 3188]
ch2 : [1512, 1510, 1533, 1526, 1529, 1531, 1520, 1532, 1523, 1513]
ch3 : [2774, 2777, 2790, 2776, 2771, 2776, 2768, 2770, 2765, 2766]
ch0 : [2470, 2519, 2624, 2629, 2640, 2612, 2604, 2638, 2626, 2463]
ch1 : [3185, 3183, 3187, 3188, 3188, 3188, 3192, 3191, 3187, 3186]
ch2 : [1512, 1530, 1531, 1523, 1522, 1529, 1525, 1520, 1509, 1521]
ch3 : [2768, 2772, 2777, 2777, 2772, 2764, 2763, 2757, 2765, 2773]
ch0 : [2614, 2634, 2625, 2630, 2614, 2560, 2645, 2612, 2502, 2607]
ch1 : [3185, 3186, 3185, 3186, 3188, 3187, 3188, 3189, 3186, 3186]
ch2 : [1528, 1527, 1525, 1529, 1526, 1525, 1512, 1508, 1526, 1523]
ch3 : [2772, 2772, 2774, 2774, 2773, 2775, 2773, 2770, 2776, 2782]
ch0 : [2631, 2638, 2614, 2626, 2639, 2639, 2426, 2566, 2619, 2628]
ch1 : [3184, 3188, 3191, 3187, 3186, 3193, 3182, 3182, 3182, 3186]
ch2 : [1526, 1523, 1520, 1524, 1529, 1508, 1519, 1522, 1524, 1525]
ch3 : [2773, 2772, 2770, 2775, 2768, 2771, 2786, 2774, 2775, 2775]
ch0 : [2633, 2602, 2565, 2641, 2582, 2491, 2599, 2621, 2632, 2601]
ch1 : [3188, 3192, 3190, 3188, 3183, 3182, 3188, 3186, 3188, 3190]
ch2 : [1519, 1521, 1519, 1511, 1491, 1523, 1526, 1524, 1523, 1520]
ch3 : [2777, 2775, 2772, 2772, 2775, 2779, 2780, 2779, 2774, 2776]
ch0 : [2608, 2639, 2640, 2413, 2575, 2622, 2596, 2631, 2586, 2563]
ch1 : [3184, 3187, 3187, 3181, 3188, 3178, 3189, 3186, 3187, 3186]
ch2 : [1517, 1518, 1510, 1517, 1526, 1526, 1523, 1526, 1518, 1519]
ch3 : [2772, 2777, 2777, 2777, 2782, 2779, 2776, 2774, 2774, 2775]
ch0 : [2637, 2548, 2451, 2595, 2630, 2626, 2627, 2596, 2635, 2630]
ch1 : [3191, 3192, 3193, 3180, 3185, 3188, 3190, 3192, 3188, 3188]
ch2 : [1510, 1513, 1521, 1525, 1522, 1525, 1521, 1519, 1514, 1511]
ch3 : [2777, 2776, 2779, 2782, 2786, 2772, 2777, 2778, 2780, 2783]
ch0 : [2375, 2563, 2601, 2616, 2626, 2569, 2551, 2632, 2605, 2449]
ch1 : [3180, 3188, 3190, 3190, 3189, 3189, 3189, 3191, 3185, 3189]
ch2 : [1513, 1525, 1518, 1517, 1519, 1517, 1519, 1504, 1500, 1513]
ch3 : [2786, 2786, 2788, 2788, 2788, 2787, 2786, 2788, 2786, 2790]
ch0 : [2579, 2617, 2628, 2624, 2589, 2632, 2632, 2377, 2581, 2606]
ch1 : [3185, 3187, 3190, 3186, 3189, 3188, 3189, 3189, 3185, 3182]
ch2 : [1522, 1518, 1513, 1515, 1517, 1516, 1503, 1506, 1518, 1511]
ch3 : [2792, 2792, 2788, 2790, 2788, 2788, 2792, 2790, 2791, 2790]
ch0 : [2593, 2625, 2598, 2587, 2626, 2587, 2429, 2575, 2614, 2623]
ch1 : [3189, 3187, 3187, 3192, 3187, 3188, 3180, 3182, 3182, 3182]
ch2 : [1518, 1517, 1517, 1515, 1507, 1503, 1515, 1523, 1515, 1507]
ch3 : [2793, 2788, 2792, 2793, 2788, 2784, 2787, 2794, 2794, 2792]
ch0 : [2613, 2591, 2627, 2632, 2398, 2552, 2609, 2603, 2623, 2601]
ch1 : [3191, 3185, 3192, 3187, 3184, 3184, 3186, 3187, 3185, 3183]
ch2 : [1521, 1515, 1505, 1500, 1506, 1519, 1521, 1520, 1519, 1524]
ch3 : [2788, 2787, 2790, 2796, 2796, 2795, 2794, 2795, 2794, 2794]
ch0 : [2582, 2635, 2610, 2407, 2564, 2623, 2622, 2621, 2587, 2614]
ch1 : [3185, 3187, 3186, 3185, 3185, 3184, 3187, 3190, 3192, 3187]
ch2 : [1522, 1509, 1499, 1516, 1515, 1509, 1519, 1516, 1519, 1513]
ch3 : [2782, 2799, 2796, 2794, 2798, 2799, 2797, 2797, 2795, 2797]
ch0 : [2630, 2459, 2549, 2616, 2605, 2622, 2593, 2590, 2636, 2615]
ch1 : [3187, 3183, 3184, 3186, 3184, 3191, 3189, 3188, 3187, 3198]
ch2 : [1502, 1508, 1519, 1522, 1519, 1515, 1516, 1511, 1505, 1503]
ch3 : [2799, 2799, 2804, 2797, 2799, 2798, 2798, 2798, 2799, 2800]
ch0 : [2391, 2567, 2608, 2622, 2589, 2571, 2578, 2630, 2520, 2560]
ch1 : [3181, 3178, 3186, 3188, 3187, 3189, 3188, 3186, 3180, 3185]
ch2 : [1509, 1520, 1520, 1519, 1516, 1513, 1512, 1500, 1500, 1513]
ch3 : [2802, 2803, 2804, 2803, 2799, 2799, 2800, 2805, 2807, 2806]
ch0 : [2609, 2594, 2624, 2597, 2612, 2630, 2626, 2398, 2591, 2615]
ch1 : [3190, 3190, 3176, 3187, 3188, 3189, 3182, 3177, 3185, 3188]
ch2 : [1522, 1514, 1516, 1515, 1511, 1508, 1483, 1510, 1518, 1517]
ch3 : [2805, 2805, 2804, 2802, 2807, 2801, 2804, 2805, 2811, 2808]
ch0 : [2622, 2622, 2581, 2582, 2631, 2583, 2540, 2603, 2611, 2625]
ch1 : [3188, 3182, 3191, 3188, 3188, 3179, 3187, 3186, 3187, 3187]
ch2 : [1515, 1513, 1515, 1511, 1496, 1514, 1523, 1520, 1514, 1516]
ch3 : [2811, 2800, 2802, 2804, 2807, 2811, 2808, 2807, 2812, 2806]
ch0 : [2608, 2605, 2630, 2625, 2383, 2571, 2613, 2625, 2621, 2582]
ch1 : [3186, 3189, 3189, 3189, 3187, 3182, 3188, 3189, 3190, 3185]
ch2 : [1515, 1514, 1510, 1497, 1507, 1518, 1516, 1514, 1504, 1512]
ch3 : [2806, 2807, 2815, 2805, 2805, 2807, 2814, 2806, 2815, 2808]
ch0 : [2559, 2635, 2578, 2540, 2625, 2595, 2620, 2607, 2584, 2633]
ch1 : [3185, 3202, 3189, 3186, 3186, 3183, 3188, 3193, 3189, 3188]
ch2 : [1514, 1499, 1499, 1516, 1518, 1512, 1516, 1511, 1511, 1511]
ch3 : [2799, 2806, 2804, 2809, 2808, 2807, 2803, 2805, 2806, 2807]
ch0 : [2512, 2611, 2607, 2618, 2613, 2589, 2635, 2629, 2333, 2543]
ch1 : [3188, 3186, 3188, 3186, 3187, 3189, 3190, 3188, 3185, 3183]
ch2 : [1510, 1516, 1528, 1513, 1511, 1513, 1506, 1494, 1504, 1512]
ch3 : [2810, 2809, 2809, 2797, 2809, 2810, 2806, 2804, 2799, 2807]
ch0 : [2604, 2618, 2619, 2602, 2573, 2626, 2609, 2498, 2602, 2606]
ch1 : [3186, 3192, 3182, 3188, 3189, 3186, 3188, 3189, 3189, 3182]
ch2 : [1513, 1511, 1509, 1509, 1516, 1501, 1498, 1511, 1518, 1512]
ch3 : [2812, 2815, 2807, 2807, 2807, 2813, 2825, 2813, 2812, 2808]
ch0 : [2621, 2602, 2579, 2627, 2630, 2321, 2550, 2606, 2615, 2624]
ch1 : [3185, 3189, 3188, 3189, 3197, 3184, 3181, 3181, 3189, 3186]
ch2 : [1513, 1514, 1513, 1510, 1497, 1503, 1518, 1517, 1515, 1511]
ch3 : [2809, 2809, 2813, 2817, 2807, 2810, 2815, 2808, 2817, 2807]
ch0 : [2593, 2583, 2629, 2626, 2503, 2605, 2617, 2616, 2620, 2569]
ch1 : [3188, 3189, 3185, 3187, 3183, 3186, 3188, 3188, 3192, 3193]
ch2 : [1525, 1511, 1504, 1502, 1517, 1512, 1521, 1516, 1514, 1511]
ch3 : [2809, 2811, 2816, 2812, 2808, 2814, 2813, 2813, 2813, 2816]
ch0 : [2628, 2630, 2292, 2539, 2612, 2612, 2623, 2586, 2587, 2631]
ch1 : [3187, 3183, 3181, 3185, 3184, 3186, 3187, 3178, 3192, 3189]
ch2 : [1512, 1494, 1503, 1515, 1524, 1516, 1514, 1512, 1512, 1502]
ch3 : [2814, 2813, 2815, 2820, 2818, 2815, 2812, 2813, 2813, 2815]
ch0 : [2639, 2490, 2601, 2614, 2622, 2610, 2570, 2568, 2637, 2308]
ch1 : [3173, 3183, 3181, 3187, 3189, 3188, 3187, 3195, 3187, 3188]
ch2 : [1499, 1513, 1517, 1521, 1507, 1517, 1515, 1512, 1501, 1504]
ch3 : [2817, 2818, 2817, 2814, 2816, 2815, 2826, 2820, 2815, 2815]
ch0 : [2530, 2613, 2615, 2624, 2563, 2593, 2645, 2632, 2484, 2597]
ch1 : [3184, 3183, 3183, 3185, 3190, 3198, 3186, 3183, 3174, 3182]
ch2 : [1511, 1518, 1514, 1506, 1515, 1511, 1502, 1498, 1515, 1514]
ch3 : [2821, 2820, 2817, 2814, 2806, 2816, 2821, 2818, 2822, 2822]
ch0 : [2621, 2626, 2620, 2576, 2556, 2616, 2336, 2526, 2604, 2621]
ch1 : [3184, 3188, 3190, 3192, 3186, 3189, 3189, 3185, 3189, 3186]
ch2 : [1507, 1508, 1517, 1510, 1507, 1503, 1498, 1511, 1515, 1515]
ch3 : [2818, 2818, 2818, 2826, 2818, 2826, 2815, 2821, 2815, 2818]
ch0 : [2624, 2600, 2589, 2633, 2633, 2470, 2588, 2619, 2621, 2625]
ch1 : [3190, 3188, 3191, 3179, 3188, 3181, 3185, 3189, 3193, 3192]
ch2 : [1511, 1511, 1512, 1508, 1503, 1510, 1516, 1515, 1513, 1513]
ch3 : [2816, 2830, 2817, 2823, 2814, 2821, 2821, 2821, 2821, 2820]
ch0 : [2574, 2553, 2634, 2435, 2512, 2599, 2620, 2629, 2607, 2611]
ch1 : [3191, 3190, 3183, 3184, 3185, 3186, 3183, 3189, 3189, 3188]
ch2 : [1511, 1511, 1501, 1503, 1515, 1520, 1511, 1512, 1511, 1514]
ch3 : [2820, 2818, 2819, 2817, 2822, 2824, 2822, 2821, 2816, 2818]
ch0 : [2513, 2505, 2602, 2626, 2632, 2611, 2609, 2636, 2634, 2435]
ch1 : [3185, 3191, 3185, 3187, 3185, 3191, 3188, 3193, 3185, 3182]
ch2 : [1499, 1516, 1517, 1532, 1511, 1513, 1517, 1507, 1499, 1506]
ch3 : [2825, 2826, 2829, 2823, 2824, 2821, 2822, 2824, 2823, 2826]
ch0 : [2604, 2627, 2626, 2632, 2603, 2572, 2642, 2601, 2485, 2617]
ch1 : [3187, 3192, 3189, 3188, 3192, 3188, 3187, 3184, 3182, 3184]
ch2 : [1527, 1519, 1515, 1513, 1513, 1512, 1504, 1496, 1519, 1517]
ch3 : [2829, 2836, 2824, 2824, 2828, 2824, 2824, 2824, 2828, 2826]
ch0 : [2624, 2629, 2609, 2624, 2642, 2640, 2445, 2614, 2625, 2634]
ch1 : [3183, 3190, 3186, 3197, 3190, 3181, 3187, 3180, 3187, 3184]
ch2 : [1517, 1516, 1515, 1511, 1504, 1495, 1510, 1517, 1515, 1516]
ch3 : [2840, 2825, 2822, 2827, 2828, 2823, 2834, 2827, 2828, 2827]
ch0 : [2639, 2630, 2571, 2641, 2640, 2518, 2632, 2631, 2641, 2632]
ch1 : [3191, 3187, 3191, 3187, 3182, 3179, 3185, 3183, 3187, 3195]
ch2 : [1513, 1511, 1515, 1500, 1495, 1516, 1521, 1508, 1511, 1517]
ch3 : [2823, 2828, 2828, 2825, 2827, 2828, 2829, 2829, 2826, 2824]
ch0 : [2615, 2648, 2645, 2416, 2597, 2615, 2601, 2641, 2606, 2580]
ch1 : [3192, 3188, 3183, 3200, 3184, 3189, 3191, 3187, 3188, 3182]
ch2 : [1514, 1511, 1501, 1505, 1523, 1516, 1517, 1515, 1511, 1513]
ch3 : [2825, 2825, 2830, 2833, 2830, 2828, 2826, 2832, 2827, 2828]
ch0 : [2649, 2606, 2457, 2600, 2624, 2637, 2616, 2596, 2639, 2644]
ch1 : [3190, 3187, 3182, 3186, 3187, 3184, 3190, 3191, 3199, 3189]
ch2 : [1500, 1500, 1516, 1517, 1516, 1512, 1517, 1512, 1507, 1500]
ch3 : [2827, 2835, 2829, 2833, 2833, 2826, 2825, 2827, 2829, 2829]
ch0 : [2383, 2566, 2622, 2597, 2630, 2591, 2553, 2646, 2585, 2439]
ch1 : [3190, 3187, 3189, 3188, 3190, 3189, 3194, 3189, 3188, 3178]
ch2 : [1504, 1532, 1512, 1516, 1518, 1515, 1513, 1509, 1495, 1514]
ch3 : [2833, 2830, 2830, 2828, 2831, 2826, 2832, 2829, 2833, 2835]
ch0 : [2588, 2628, 2637, 2626, 2607, 2632, 2654, 2384, 2542, 2625]
ch1 : [3182, 3186, 3190, 3187, 3187, 3189, 3187, 3187, 3197, 3187]
ch2 : [1519, 1517, 1515, 1511, 1510, 1513, 1503, 1504, 1518, 1518]
ch3 : [2831, 2831, 2830, 2830, 2835, 2831, 2828, 2830, 2832, 2831]
ch0 : [2605, 2620, 2600, 2595, 2641, 2570, 2429, 2567, 2592, 2623]
ch1 : [3185, 3192, 3192, 3189, 3190, 3183, 3182, 3185, 3190, 3186]
ch2 : [1519, 1514, 1514, 1514, 1506, 1502, 1520, 1521, 1518, 1517]
ch3 : [2827, 2831, 2823, 2821, 2833, 2826, 2830, 2831, 2821, 2827]
ch0 : [2622, 2594, 2633, 2628, 2383, 2534, 2603, 2595, 2624, 2589]
ch1 : [3189, 3188, 3187, 3192, 3185, 3186, 3184, 3186, 3194, 3190]
ch2 : [1514, 1516, 1514, 1501, 1504, 1518, 1514, 1514, 1514, 1512]
ch3 : [2826, 2827, 2823, 2825, 2824, 2814, 2824, 2833, 2840, 2835]
ch0 : [2623, 2479, 2551, 2586, 2594, 2621, 2570, 2592, 2631, 2628]
ch1 : [3188, 3190, 3185, 3188, 3186, 3186, 3195, 3191, 3189, 3189]
ch2 : [1502, 1499, 1516, 1519, 1518, 1508, 1512, 1524, 1506, 1498]
ch3 : [2840, 2836, 2823, 2826, 2823, 2824, 2827, 2834, 2834, 2829]
ch0 : [2388, 2562, 2599, 2621, 2621, 2579, 2573, 2632, 2536, 2527]
ch1 : [3183, 3184, 3191, 3185, 3192, 3192, 3192, 3188, 3186, 3184]
ch2 : [1510, 1521, 1516, 1512, 1513, 1514, 1511, 1501, 1504, 1513]
ch3 : [2827, 2830, 2829, 2832, 2829, 2830, 2832, 2838, 2839, 2834]
ch0 : [2593, 2603, 2605, 2593, 2594, 2629, 2569, 2368, 2556, 2600]
ch1 : [3186, 3189, 3187, 3190, 3187, 3191, 3185, 3183, 3182, 3185]
ch2 : [1513, 1515, 1513, 1515, 1513, 1503, 1498, 1508, 1519, 1512]
ch3 : [2833, 2836, 2829, 2826, 2817, 2810, 2844, 2838, 2833, 2829]
ch0 : [2614, 2618, 2584, 2575, 2626, 2575, 2534, 2608, 2595, 2607]
ch1 : [3185, 3187, 3180, 3186, 3189, 3184, 3185, 3187, 3189, 3202]
ch2 : [1515, 1504, 1507, 1514, 1502, 1491, 1516, 1518, 1514, 1516]
ch3 : [2824, 2823, 2814, 2804, 2829, 2832, 2834, 2831, 2834, 2832]
ch0 : [2597, 2612, 2629, 2557, 2368, 2561, 2604, 2621, 2612, 2589]
ch1 : [3192, 3192, 3191, 3183, 3183, 3198, 3187, 3191, 3192, 3187]
ch2 : [1516, 1511, 1514, 1495, 1511, 1518, 1521, 1515, 1513, 1513]
ch3 : [2841, 2837, 2833, 2823, 2823, 2842, 2849, 2848, 2842, 2835]
ch0 : [2572, 2625, 2630, 2522, 2603, 2608, 2617, 2603, 2594, 2628]
ch1 : [3189, 3183, 3189, 3195, 3186, 3188, 3188, 3189, 3196, 3185]
ch2 : [1511, 1503, 1504, 1517, 1523, 1513, 1519, 1524, 1514, 1511]
ch3 : [2831, 2838, 2839, 2834, 2836, 2834, 2835, 2837, 2840, 2827]
ch0 : [2629, 2343, 2559, 2586, 2617, 2619, 2580, 2568, 2626, 2606]
ch1 : [3198, 3186, 3184, 3187, 3180, 3186, 3199, 3191, 3188, 3188]
ch2 : [1498, 1513, 1518, 1518, 1519, 1516, 1512, 1515, 1505, 1500]
ch3 : [2815, 2822, 2835, 2838, 2835, 2823, 2829, 2832, 2825, 2829]
ch0 : [2509, 2603, 2597, 2613, 2600, 2593, 2628, 2628, 2332, 2546]
ch1 : [3181, 3188, 3189, 3189, 3189, 3197, 3178, 3186, 3185, 3185]
ch2 : [1517, 1535, 1513, 1515, 1517, 1514, 1515, 1505, 1525, 1515]
ch3 : [2824, 2825, 2823, 2813, 2824, 2825, 2836, 2823, 2827, 2834]
ch0 : [2615, 2615, 2624, 2601, 2580, 2631, 2626, 2509, 2611, 2614]
ch1 : [3180, 3187, 3186, 3184, 3190, 3175, 3189, 3187, 3188, 3188]
ch2 : [1522, 1509, 1515, 1515, 1521, 1506, 1501, 1519, 1519, 1524]
ch3 : [2831, 2827, 2820, 2827, 2826, 2824, 2824, 2827, 2818, 2817]
ch0 : [2620, 2618, 2590, 2628, 2632, 2324, 2543, 2616, 2616, 2626]
ch1 : [3190, 3183, 3190, 3193, 3183, 3185, 3174, 3186, 3190, 3193]
ch2 : [1519, 1509, 1519, 1515, 1501, 1517, 1525, 1524, 1518, 1517]
ch3 : [2825, 2826, 2818, 2815, 2819, 2820, 2821, 2821, 2817, 2810]
ch0 : [2596, 2591, 2636, 2630, 2501, 2610, 2621, 2628, 2625, 2578]
ch1 : [3192, 3188, 3187, 3188, 3187, 3186, 3187, 3189, 3192, 3193]
ch2 : [1517, 1519, 1503, 1509, 1518, 1524, 1522, 1517, 1524, 1521]
ch3 : [2808, 2806, 2807, 2815, 2805, 2809, 2794, 2795, 2810, 2813]
ch0 : [2611, 2638, 2312, 2538, 2617, 2625, 2630, 2593, 2611, 2635]
ch1 : [3178, 3172, 3181, 3182, 3185, 3189, 3191, 3190, 3188, 3192]
ch2 : [1523, 1506, 1511, 1541, 1510, 1523, 1522, 1524, 1519, 1512]
ch3 : [2810, 2808, 2801, 2806, 2804, 2805, 2805, 2802, 2802, 2805]
ch0 : [2637, 2490, 2610, 2610, 2631, 2618, 2573, 2557, 2622, 2319]
ch1 : [3187, 3180, 3190, 3186, 3190, 3177, 3190, 3188, 3188, 3182]
ch2 : [1499, 1524, 1529, 1513, 1527, 1526, 1528, 1525, 1517, 1514]
ch3 : [2803, 2795, 2800, 2809, 2820, 2816, 2789, 2791, 2777, 2782]
ch0 : [2536, 2602, 2623, 2630, 2591, 2606, 2639, 2634, 2482, 2591]
ch1 : [3182, 3187, 3190, 3186, 3191, 3192, 3181, 3201, 3190, 3186]
ch2 : [1534, 1517, 1531, 1522, 1543, 1531, 1519, 1515, 1529, 1537]
ch3 : [2794, 2797, 2794, 2790, 2788, 2789, 2789, 2788, 2789, 2788]
ch0 : [2626, 2628, 2618, 2579, 2557, 2638, 2397, 2530, 2608, 2620]
ch1 : [3188, 3184, 3186, 3191, 3187, 3189, 3186, 3184, 3187, 3186]
ch2 : [1532, 1530, 1528, 1526, 1529, 1516, 1517, 1521, 1534, 1532]
ch3 : [2782, 2788, 2800, 2785, 2783, 2786, 2783, 2782, 2778, 2774]
ch0 : [2628, 2586, 2615, 2642, 2639, 2466, 2600, 2610, 2641, 2626]
ch1 : [3185, 3182, 3188, 3191, 3187, 3185, 3187, 3177, 3192, 3193]
ch2 : [1535, 1531, 1533, 1524, 1521, 1530, 1535, 1536, 1534, 1537]
ch3 : [2781, 2785, 2778, 2778, 2775, 2769, 2767, 2780, 2779, 2777]
ch0 : [2575, 2561, 2643, 2460, 2502, 2596, 2622, 2630, 2597, 2597]
ch1 : [3190, 3194, 3192, 3188, 3185, 3190, 3189, 3197, 3189, 3186]
ch2 : [1532, 1532, 1521, 1523, 1548, 1538, 1535, 1533, 1533, 1532]
ch3 : [2777, 2772, 2771, 2771, 2777, 2772, 2776, 2767, 2767, 2775]
ch0 : [2633, 2631, 2439, 2586, 2618, 2623, 2621, 2590, 2545, 2636]
ch1 : [3188, 3186, 3187, 3189, 3188, 3190, 3193, 3193, 3187, 3192]
ch2 : [1527, 1525, 1531, 1541, 1537, 1535, 1535, 1534, 1529, 1514]
ch3 : [2772, 2773, 2771, 2774, 2777, 2773, 2771, 2773, 2770, 2768]
ch0 : [2532, 2494, 2590, 2619, 2627, 2593, 2618, 2634, 2592, 2426]
ch1 : [3188, 3188, 3192, 3192, 3187, 3193, 3188, 3192, 3187, 3182]
ch2 : [1517, 1539, 1540, 1540, 1531, 1531, 1538, 1530, 1522, 1526]
ch3 : [2769, 2776, 2773, 2774, 2763, 2768, 2769, 2761, 2761, 2761]
ch0 : [2574, 2593, 2627, 2622, 2611, 2544, 2631, 2624, 2483, 2588]
ch1 : [3187, 3191, 3191, 3167, 3188, 3193, 3189, 3190, 3188, 3186]
ch2 : [1535, 1535, 1534, 1534, 1534, 1534, 1528, 1516, 1536, 1533]
ch3 : [2759, 2766, 2759, 2769, 2757, 2764, 2761, 2760, 2761, 2764]
ch0 : [2625, 2583, 2559, 2632, 2597, 2473, 2592, 2621, 2626, 2604]
ch1 : [3197, 3192, 3190, 3189, 3189, 3185, 3186, 3189, 3191, 3187]
ch2 : [1535, 1538, 1532, 1521, 1517, 1536, 1535, 1534, 1533, 1532]
ch3 : [2763, 2768, 2764, 2764, 2767, 2771, 2768, 2768, 2768, 2768]
ch0 : [2611, 2628, 2628, 2406, 2566, 2611, 2603, 2620, 2582, 2556]
ch1 : [3197, 3188, 3188, 3183, 3189, 3190, 3191, 3190, 3192, 3202]
ch2 : [1533, 1530, 1525, 1524, 1534, 1541, 1532, 1540, 1534, 1530]
ch3 : [2764, 2764, 2771, 2769, 2769, 2768, 2769, 2769, 2776, 2770]
ch0 : [2633, 2591, 2454, 2588, 2621, 2628, 2605, 2584, 2625, 2633]
ch1 : [3188, 3187, 3183, 3187, 3183, 3190, 3186, 3188, 3192, 3187]
ch2 : [1520, 1513, 1538, 1531, 1532, 1530, 1524, 1525, 1526, 1516]
ch3 : [2768, 2769, 2774, 2773, 2775, 2767, 2770, 2770, 2771, 2775]
ch0 : [2375, 2548, 2595, 2602, 2616, 2582, 2557, 2630, 2614, 2436]
ch1 : [3187, 3189, 3191, 3192, 3177, 3193, 3187, 3187, 3188, 3183]
ch2 : [1520, 1533, 1531, 1535, 1531, 1529, 1529, 1517, 1518, 1528]
ch3 : [2775, 2775, 2772, 2774, 2767, 2772, 2771, 2774, 2771, 2775]
ch0 : [2572, 2599, 2626, 2595, 2574, 2618, 2626, 2367, 2552, 2614]
ch1 : [3184, 3186, 3187, 3192, 3191, 3186, 3189, 3186, 3182, 3175]
ch2 : [1536, 1532, 1532, 1530, 1535, 1531, 1519, 1529, 1534, 1540]
ch3 : [2784, 2778, 2775, 2773, 2773, 2780, 2777, 2783, 2779, 2784]
ch0 : [2590, 2614, 2584, 2571, 2626, 2594, 2418, 2579, 2588, 2621]
ch1 : [3186, 3189, 3192, 3189, 3192, 3190, 3183, 3185, 3189, 3188]
ch2 : [1537, 1534, 1534, 1532, 1527, 1518, 1533, 1540, 1535, 1532]
ch3 : [2784, 2782, 2779, 2784, 2782, 2782, 2788, 2788, 2796, 2785]
ch0 : [2609, 2577, 2620, 2616, 2390, 2546, 2596, 2585, 2614, 2572]
ch1 : [3189, 3184, 3187, 3188, 3191, 3188, 3188, 3192, 3181, 3193]
ch2 : [1531, 1534, 1534, 1520, 1520, 1537, 1535, 1535, 1531, 1531]
ch3 : [2783, 2783, 2788, 2788, 2800, 2791, 2791, 2789, 2789, 2788]
ch0 : [2566, 2630, 2623, 2403, 2573, 2603, 2618, 2606, 2576, 2590]
ch1 : [3192, 3186, 3187, 3183, 3194, 3186, 3188, 3177, 3188, 3193]
ch2 : [1527, 1522, 1514, 1530, 1535, 1535, 1530, 1529, 1532, 1528]
ch3 : [2789, 2786, 2790, 2791, 2799, 2794, 2797, 2789, 2791, 2792]
ch0 : [2628, 2490, 2536, 2592, 2604, 2621, 2596, 2587, 2626, 2615]
ch1 : [3188, 3189, 3191, 3183, 3191, 3188, 3189, 3192, 3193, 3190]
ch2 : [1520, 1515, 1530, 1536, 1525, 1533, 1527, 1527, 1519, 1511]
ch3 : [2794, 2797, 2804, 2798, 2796, 2795, 2800, 2793, 2795, 2786]
ch0 : [2394, 2564, 2601, 2637, 2614, 2574, 2570, 2619, 2534, 2534]
ch1 : [3185, 3187, 3190, 3188, 3187, 3188, 3190, 3186, 3189, 3189]
ch2 : [1525, 1534, 1529, 1527, 1526, 1520, 1524, 1513, 1501, 1528]
ch3 : [2798, 2799, 2799, 2800, 2791, 2794, 2798, 2798, 2802, 2799]
ch0 : [2597, 2606, 2619, 2589, 2582, 2623, 2618, 2390, 2563, 2613]
ch1 : [3190, 3187, 3189, 3192, 3189, 3194, 3188, 3187, 3184, 3188]
ch2 : [1525, 1529, 1525, 1522, 1522, 1520, 1508, 1522, 1532, 1527]
ch3 : [2792, 2795, 2798, 2800, 2801, 2800, 2801, 2795, 2806, 2801]
ch0 : [2618, 2612, 2555, 2567, 2631, 2574, 2532, 2602, 2603, 2618]
ch1 : [3187, 3185, 3190, 3189, 3189, 3183, 3188, 3193, 3190, 3185]
ch2 : [1530, 1523, 1518, 1524, 1510, 1507, 1533, 1527, 1526, 1524]
ch3 : [2801, 2790, 2798, 2803, 2801, 2806, 2808, 2803, 2799, 2805]
ch0 : [2611, 2587, 2629, 2628, 2354, 2553, 2604, 2617, 2621, 2539]
ch1 : [3189, 3192, 3201, 3187, 3184, 3184, 3188, 3187, 3189, 3186]
ch2 : [1521, 1521, 1517, 1505, 1512, 1525, 1523, 1524, 1519, 1518]
ch3 : [2804, 2805, 2803, 2802, 2800, 2805, 2809, 2823, 2804, 2795]
ch0 : [2564, 2631, 2602, 2523, 2592, 2603, 2611, 2609, 2583, 2613]
ch1 : [3186, 3190, 3192, 3189, 3193, 3186, 3191, 3190, 3189, 3193]
ch2 : [1520, 1509, 1502, 1522, 1524, 1524, 1521, 1519, 1518, 1516]
ch3 : [2805, 2802, 2806, 2808, 2805, 2799, 2801, 2807, 2804, 2808]
ch0 : [2587, 2337, 2546, 2616, 2609, 2633, 2575, 2577, 2631, 2627]
ch1 : [3187, 3185, 3185, 3191, 3187, 3188, 3191, 3189, 3188, 3183]
ch2 : [1502, 1514, 1527, 1525, 1523, 1518, 1522, 1518, 1511, 1503]
ch3 : [2807, 2816, 2808, 2811, 2809, 2800, 2805, 2809, 2804, 2808]
ch0 : [2505, 2583, 2599, 2615, 2613, 2588, 2627, 2620, 2322, 2535]
ch1 : [3188, 3190, 3188, 3194, 3190, 3192, 3191, 3189, 3192, 3185]
ch2 : [1522, 1523, 1527, 1521, 1525, 1519, 1518, 1505, 1517, 1526]
ch3 : [2821, 2803, 2807, 2807, 2805, 2809, 2817, 2805, 2809, 2811]
ch0 : [2604, 2597, 2617, 2571, 2563, 2624, 2593, 2506, 2594, 2600]
ch1 : [3183, 3182, 3189, 3189, 3193, 3204, 3194, 3189, 3188, 3180]
ch2 : [1525, 1519, 1517, 1520, 1521, 1510, 1509, 1537, 1524, 1527]
ch3 : [2810, 2809, 2802, 2805, 2808, 2808, 2822, 2815, 2809, 2808]
ch0 : [2618, 2601, 2568, 2621, 2620, 2310, 2535, 2594, 2611, 2620]
ch1 : [3188, 3192, 3192, 3192, 3189, 3191, 3184, 3192, 3187, 3188]
ch2 : [1523, 1522, 1520, 1520, 1504, 1514, 1526, 1524, 1530, 1515]
ch3 : [2812, 2810, 2816, 2800, 2809, 2810, 2811, 2815, 2812, 2806]
ch0 : [2580, 2574, 2619, 2565, 2486, 2593, 2600, 2617, 2605, 2560]
ch1 : [3190, 3196, 3191, 3189, 3189, 3189, 3194, 3188, 3189, 3182]
ch2 : [1517, 1523, 1503, 1506, 1519, 1529, 1522, 1505, 1521, 1518]
ch3 : [2811, 2813, 2813, 2814, 2816, 2814, 2815, 2812, 2813, 2812]
ch0 : [2594, 2620, 2284, 2530, 2589, 2594, 2617, 2571, 2567, 2627]
ch1 : [3188, 3177, 3191, 3187, 3191, 3184, 3184, 3189, 3195, 3186]
ch2 : [1520, 1501, 1506, 1524, 1525, 1525, 1518, 1516, 1519, 1512]
ch3 : [2807, 2812, 2813, 2821, 2816, 2814, 2812, 2814, 2816, 2812]
ch0 : [2510, 2599, 2608, 2618, 2560, 2586, 2619, 2622, 2456, 2574]
ch1 : [3186, 3188, 3188, 3187, 3188, 3193, 3186, 3183, 3190, 3188]
ch2 : [1525, 1529, 1522, 1519, 1525, 1519, 1511, 1504, 1512, 1528]
ch3 : [2821, 2820, 2819, 2810, 2814, 2812, 2818, 2819, 2818, 2818]
ch0 : [2584, 2609, 2610, 2545, 2534, 2622, 2338, 2506, 2585, 2595]
ch1 : [3187, 3190, 3189, 3189, 3193, 3187, 3187, 3188, 3187, 3187]
ch2 : [1523, 1520, 1521, 1518, 1519, 1508, 1508, 1524, 1521, 1520]
ch3 : [2818, 2817, 2814, 2805, 2816, 2814, 2817, 2820, 2819, 2824]
ch0 : [2612, 2576, 2577, 2624, 2579, 2444, 2576, 2597, 2617, 2611]
ch1 : [3188, 3188, 3190, 3191, 3177, 3189, 3193, 3187, 3189, 3188]
ch2 : [1512, 1517, 1514, 1519, 1507, 1516, 1518, 1519, 1520, 1515]
ch3 : [2816, 2809, 2816, 2817, 2815, 2823, 2824, 2814, 2823, 2817]
ch0 : [2570, 2533, 2621, 2416, 2499, 2583, 2607, 2598, 2581, 2595]
ch1 : [3192, 3185, 3189, 3189, 3185, 3189, 3188, 3187, 3189, 3189]
ch2 : [1516, 1517, 1502, 1501, 1520, 1522, 1517, 1511, 1521, 1516]
ch3 : [2819, 2827, 2817, 2818, 2824, 2822, 2819, 2816, 2817, 2821]
ch0 : [2621, 2620, 2431, 2580, 2586, 2615, 2612, 2573, 2532, 2617]
ch1 : [3184, 3187, 3189, 3177, 3193, 3186, 3188, 3186, 3194, 3189]
ch2 : [1514, 1503, 1513, 1525, 1520, 1520, 1514, 1516, 1518, 1503]
ch3 : [2826, 2823, 2823, 2822, 2824, 2820, 2819, 2832, 2823, 2815]
ch0 : [2499, 2470, 2578, 2603, 2616, 2575, 2588, 2623, 2605, 2417]
ch1 : [3183, 3181, 3190, 3187, 3191, 3192, 3192, 3189, 3187, 3182]
ch2 : [1503, 1520, 1522, 1519, 1513, 1514, 1518, 1512, 1500, 1517]
ch3 : [2824, 2825, 2825, 2826, 2820, 2819, 2820, 2819, 2820, 2823]
ch0 : [2564, 2583, 2606, 2600, 2570, 2523, 2622, 2541, 2468, 2574]
ch1 : [3186, 3188, 3197, 3187, 3192, 3192, 3192, 3186, 3185, 3188]
ch2 : [1521, 1524, 1524, 1519, 1523, 1520, 1505, 1502, 1517, 1528]
ch3 : [2827, 2824, 2826, 2830, 2822, 2828, 2820, 2819, 2826, 2823]
ch0 : [2599, 2613, 2585, 2576, 2621, 2620, 2399, 2562, 2604, 2582]
ch1 : [3191, 3188, 3192, 3189, 3189, 3191, 3189, 3188, 3188, 3190]
ch2 : [1519, 1521, 1517, 1517, 1515, 1504, 1516, 1518, 1527, 1524]
ch3 : [2825, 2826, 2821, 2830, 2825, 2824, 2826, 2823, 2819, 2827]
ch0 : [2606, 2566, 2542, 2621, 2579, 2465, 2580, 2607, 2613, 2595]
ch1 : [3183, 3190, 3191, 3191, 3190, 3183, 3187, 3192, 3192, 3186]
ch2 : [1519, 1507, 1519, 1507, 1516, 1522, 1520, 1523, 1520, 1521]
ch3 : [2827, 2827, 2826, 2828, 2822, 2827, 2830, 2831, 2825, 2820]
ch0 : [2564, 2623, 2619, 2355, 2551, 2593, 2580, 2610, 2579, 2538]
ch1 : [3190, 3185, 3189, 3188, 3191, 3189, 3189, 3190, 3193, 3193]
ch2 : [1516, 1515, 1506, 1514, 1526, 1524, 1531, 1522, 1521, 1522]
ch3 : [2824, 2828, 2823, 2829, 2832, 2828, 2827, 2827, 2828, 2827]
ch0 : [2625, 2525, 2438, 2559, 2594, 2614, 2596, 2572, 2614, 2618]
ch1 : [3192, 3186, 3186, 3187, 3186, 3192, 3191, 3192, 3192, 3188]
ch2 : [1512, 1506, 1524, 1535, 1527, 1522, 1519, 1519, 1519, 1509]
ch3 : [2828, 2828, 2832, 2828, 2831, 2825, 2823, 2824, 2826, 2829]
ch0 : [2364, 2553, 2599, 2585, 2605, 2557, 2550, 2620, 2581, 2428]
ch1 : [3190, 3187, 3188, 3190, 3191, 3189, 3190, 3192, 3189, 3189]
ch2 : [1513, 1525, 1524, 1525, 1519, 1524, 1520, 1510, 1503, 1521]
ch3 : [2834, 2829, 2826, 2827, 2827, 2827, 2829, 2828, 2824, 2828]
ch0 : [2571, 2586, 2611, 2603, 2576, 2617, 2618, 2376, 2540, 2598]
ch1 : [3190, 3186, 3189, 3192, 3188, 3190, 3187, 3186, 3187, 3191]
ch2 : [1526, 1522, 1518, 1515, 1516, 1516, 1507, 1510, 1519, 1521]
ch3 : [2831, 2830, 2828, 2826, 2824, 2830, 2830, 2833, 2832, 2829]
ch0 : [2580, 2615, 2580, 2560, 2623, 2607, 2396, 2558, 2600, 2612]
ch1 : [3191, 3189, 3191, 3188, 3192, 3188, 3186, 3178, 3192, 3185]
ch2 : [1519, 1518, 1516, 1517, 1510, 1503, 1521, 1524, 1520, 1517]
ch3 : [2828, 2815, 2829, 2829, 2821, 2820, 2831, 2833, 2832, 2829]
ch0 : [2579, 2556, 2599, 2620, 2424, 2544, 2588, 2607, 2613, 2602]
ch1 : [3189, 3187, 3192, 3187, 3193, 3188, 3189, 3191, 3189, 3193]
ch2 : [1511, 1511, 1519, 1505, 1506, 1520, 1511, 1519, 1517, 1518]
ch3 : [2828, 2824, 2828, 2830, 2831, 2835, 2831, 2829, 2826, 2832]
ch0 : [2568, 2622, 2619, 2383, 2567, 2606, 2614, 2612, 2587, 2594]
ch1 : [3191, 3192, 3186, 3186, 3189, 3182, 3192, 3188, 3192, 3193]
ch2 : [1521, 1522, 1498, 1516, 1523, 1525, 1519, 1514, 1517, 1518]
ch3 : [2835, 2830, 2832, 2835, 2833, 2833, 2827, 2824, 2829, 2829]
ch0 : [2619, 2551, 2536, 2581, 2594, 2597, 2568, 2573, 2625, 2619]
ch1 : [3183, 3187, 3190, 3182, 3192, 3198, 3194, 3189, 3188, 3189]
ch2 : [1506, 1501, 1525, 1521, 1534, 1516, 1520, 1523, 1517, 1502]
ch3 : [2825, 2834, 2826, 2834, 2830, 2831, 2832, 2830, 2816, 2828]
ch0 : [2383, 2597, 2613, 2620, 2589, 2542, 2546, 2578, 2544, 2564]
ch1 : [3179, 3180, 3181, 3187, 3201, 3184, 3193, 3189, 3184, 3190]
ch2 : [1517, 1530, 1525, 1519, 1519, 1514, 1520, 1507, 1506, 1528]
ch3 : [2828, 2834, 2834, 2834, 2826, 2832, 2829, 2834, 2832, 2836]
ch0 : [2624, 2612, 2606, 2587, 2611, 2628, 2627, 2346, 2541, 2625]
ch1 : [3187, 3190, 3184, 3190, 3188, 3200, 3185, 3183, 3179, 3188]
ch2 : [1527, 1525, 1521, 1523, 1521, 1517, 1498, 1515, 1524, 1527]
ch3 : [2835, 2833, 2831, 2833, 2823, 2837, 2828, 2847, 2837, 2838]
ch0 : [2616, 2623, 2614, 2538, 2628, 2562, 2509, 2615, 2612, 2629]
ch1 : [3188, 3202, 3188, 3189, 3187, 3189, 3188, 3189, 3192, 3192]
ch2 : [1519, 1520, 1514, 1521, 1508, 1507, 1525, 1523, 1522, 1521]
ch3 : [2838, 2842, 2831, 2833, 2837, 2837, 2838, 2834, 2834, 2833]
ch0 : [2559, 2558, 2628, 2629, 2332, 2561, 2617, 2583, 2587, 2623]
ch1 : [3190, 3177, 3192, 3188, 3184, 3187, 3173, 3186, 3189, 3191]
ch2 : [1521, 1521, 1523, 1509, 1516, 1523, 1529, 1524, 1521, 1521]
ch3 : [2830, 2835, 2834, 2832, 2837, 2832, 2838, 2836, 2831, 2830]
ch0 : [2572, 2618, 2628, 2496, 2516, 2553, 2624, 2633, 2634, 2648]
ch1 : [3192, 3196, 3189, 3188, 3189, 3186, 3189, 3190, 3194, 3191]
ch2 : [1522, 1509, 1509, 1522, 1526, 1525, 1525, 1524, 1520, 1521]
ch3 : [2834, 2834, 2834, 2840, 2833, 2836, 2834, 2834, 2837, 2836]
ch0 : [2395, 2478, 2585, 2594, 2563, 2503, 2613, 2626, 2474, 2616]
ch1 : [3187, 3193, 3189, 3190, 3186, 3192, 3188, 3186, 3188, 3187]
ch2 : [1521, 1525, 1522, 1536, 1518, 1525, 1522, 1505, 1515, 1528]
ch3 : [2836, 2840, 2839, 2836, 2837, 2831, 2840, 2837, 2837, 2841]
ch0 : [2487, 2415, 2605, 2616, 2552, 2625, 2640, 2562, 2620, 2612]
ch1 : [3188, 3197, 3189, 3193, 3195, 3191, 3188, 3174, 3193, 3188]
ch2 : [1522, 1520, 1519, 1519, 1518, 1522, 1509, 1519, 1525, 1523]
ch3 : [2842, 2831, 2836, 2837, 2836, 2834, 2835, 2838, 2834, 2838]
ch0 : [2584, 2488, 2478, 2513, 2593, 2168, 2385, 2597, 2608, 2612]
ch1 : [3192, 3190, 3191, 3203, 3190, 3186, 3191, 3190, 3199, 3192]
ch2 : [1519, 1514, 1518, 1516, 1504, 1505, 1521, 1523, 1520, 1511]
ch3 : [2832, 2839, 2833, 2835, 2833, 2832, 2836, 2837, 2838, 2832]
ch0 : [2623, 2535, 2621, 2406, 2341, 2580, 2591, 2606, 2597, 2605]
ch1 : [3198, 3193, 3190, 3190, 3193, 3192, 3191, 3193, 3193, 3190]
ch2 : [1512, 1514, 1503, 1494, 1512, 1518, 1520, 1515, 1514, 1511]
ch3 : [2834, 2830, 2831, 2838, 2839, 2839, 2831, 2836, 2835, 2827]
ch0 : [2457, 2619, 2281, 2380, 2380, 2578, 2590, 2599, 2612, 2618]
ch1 : [3193, 3188, 3190, 3189, 3193, 3186, 3191, 3193, 3193, 3187]
ch2 : [1507, 1506, 1517, 1516, 1518, 1514, 1510, 1514, 1510, 1503]
ch3 : [2840, 2836, 2835, 2841, 2837, 2840, 2830, 2836, 2831, 2823]
ch0 : [2564, 2341, 2409, 2588, 2602, 2607, 2617, 2540, 2474, 2151]
ch1 : [3188, 3182, 3187, 3187, 3193, 3194, 3193, 3193, 3190, 3187]
ch2 : [1500, 1508, 1518, 1516, 1514, 1515, 1514, 1509, 1496, 1499]
ch3 : [2838, 2834, 2836, 2836, 2831, 2831, 2834, 2837, 2834, 2835]
ch0 : [2428, 2579, 2605, 2605, 2504, 2551, 2617, 2543, 2201, 2355]
ch1 : [3191, 3188, 3192, 3191, 3193, 3189, 3190, 3183, 3192, 3194]
ch2 : [1518, 1518, 1515, 1513, 1513, 1516, 1506, 1500, 1515, 1518]
ch3 : [2835, 2838, 2837, 2830, 2835, 2834, 2832, 2839, 2839, 2841]
ch0 : [2536, 2586, 2591, 2585, 2438, 2557, 2440, 2387, 2516, 2547]
ch1 : [3189, 3192, 3192, 3191, 3192, 3188, 3191, 3192, 3193, 3192]
ch2 : [1516, 1511, 1514, 1515, 1506, 1505, 1500, 1518, 1520, 1513]
ch3 : [2836, 2833, 2833, 2832, 2838, 2837, 2837, 2839, 2833, 2840]
ch0 : [2556, 2515, 2581, 2504, 2390, 2480, 2507, 2568, 2493, 2498]
ch1 : [3192, 3189, 3190, 3188, 3188, 3191, 3193, 3193, 3187, 3190]
ch2 : [1519, 1514, 1507, 1503, 1518, 1526, 1519, 1517, 1517, 1512]
ch3 : [2841, 2840, 2838, 2837, 2844, 2843, 2842, 2839, 2838, 2834]
ch0 : [2571, 2554, 2328, 2453, 2511, 2456, 2449, 2408, 2481, 2559]
ch1 : [3191, 3189, 3194, 3189, 3188, 3190, 3193, 3190, 3189, 3193]
ch2 : [1511, 1500, 1508, 1517, 1520, 1515, 1516, 1513, 1505, 1502]
ch3 : [2826, 2840, 2843, 2841, 2841, 2840, 2841, 2839, 2840, 2835]
ch0 : [2487, 2374, 2276, 2455, 2542, 2526, 2421, 2556, 2557, 2305]
ch1 : [3190, 3193, 3195, 3190, 3190, 3189, 3192, 3190, 3190, 3191]
ch2 : [1502, 1516, 1519, 1521, 1512, 1516, 1509, 1511, 1494, 1512]
ch3 : [2840, 2844, 2845, 2842, 2842, 2839, 2838, 2831, 2839, 2839]
ch0 : [2420, 2477, 2472, 2506, 2476, 2451, 2549, 2474, 2338, 2531]
ch1 : [3200, 3194, 3194, 3191, 3187, 3183, 3186, 3196, 3193, 3192]
ch2 : [1516, 1524, 1514, 1515, 1510, 1516, 1496, 1494, 1510, 1514]
ch3 : [2845, 2841, 2839, 2839, 2840, 2840, 2844, 2839, 2841, 2839]
ch0 : [2543, 2547, 2385, 2390, 2545, 2546, 2256, 2431, 2541, 2473]
ch1 : [3187, 3187, 3195, 3192, 3191, 3191, 3192, 3189, 3191, 3192]
ch2 : [1516, 1506, 1504, 1505, 1498, 1492, 1497, 1502, 1504, 1502]
ch3 : [2844, 2840, 2843, 2841, 2839, 2843, 2843, 2844, 2842, 2846]
ch0 : [2421, 2291, 2365, 2549, 2459, 2298, 2380, 2445, 2526, 2455]
ch1 : [3194, 3192, 3191, 3191, 3187, 3201, 3196, 3193, 3194, 3192]
ch2 : [1496, 1501, 1496, 1495, 1482, 1502, 1505, 1507, 1487, 1491]
ch3 : [2844, 2839, 2842, 2842, 2844, 2842, 2849, 2846, 2852, 2840]
ch0 : [2458, 2531, 2505, 2212, 2405, 2491, 2453, 2446, 2459, 2434]
ch1 : [3192, 3192, 3192, 3203, 3192, 3196, 3192, 3192, 3196, 3193]
ch2 : [1495, 1490, 1482, 1487, 1498, 1497, 1496, 1491, 1494, 1493]
ch3 : [2841, 2843, 2845, 2844, 2842, 2844, 2843, 2844, 2845, 2845]
ch0 : [2492, 2378, 2228, 2495, 2520, 2530, 2288, 2473, 2518, 2481]
ch1 : [3191, 3194, 3191, 3195, 3191, 3190, 3193, 3194, 3193, 3196]
ch2 : [1488, 1471, 1490, 1500, 1497, 1497, 1492, 1491, 1491, 1478]
ch3 : [2843, 2839, 2844, 2847, 2847, 2845, 2845, 2848, 2843, 2843]
ch0 : [2236, 2433, 2465, 2404, 2445, 2447, 2423, 2519, 2425, 2252]
ch1 : [3182, 3194, 3190, 3189, 3195, 3196, 3192, 3192, 3191, 3193]
ch2 : [1486, 1495, 1495, 1494, 1491, 1489, 1487, 1477, 1477, 1486]
ch3 : [2862, 2854, 2845, 2848, 2842, 2842, 2843, 2844, 2843, 2849]
ch0 : [2414, 2438, 2514, 2442, 2394, 2439, 2493, 2297, 2374, 2431]
ch1 : [3193, 3193, 3187, 3188, 3191, 3191, 3187, 3200, 3187, 3193]
ch2 : [1494, 1498, 1490, 1485, 1492, 1493, 1476, 1480, 1492, 1494]
ch3 : [2848, 2851, 2847, 2837, 2842, 2844, 2849, 2852, 2853, 2845]
ch0 : [2457, 2414, 2414, 2509, 2350, 2375, 2449, 2439, 2467, 2452]
ch1 : [3197, 3193, 3188, 3196, 3195, 3201, 3193, 3196, 3192, 3196]
ch2 : [1491, 1491, 1491, 1480, 1480, 1495, 1495, 1496, 1486, 1495]
ch3 : [2846, 2846, 2848, 2851, 2846, 2853, 2847, 2848, 2849, 2848]
ch0 : [2437, 2513, 2432, 2248, 2397, 2434, 2504, 2470, 2433, 2407]
ch1 : [3193, 3192, 3193, 3194, 3192, 3191, 3192, 3191, 3192, 3190]
ch2 : [1495, 1490, 1477, 1497, 1501, 1502, 1497, 1499, 1497, 1501]
ch3 : [2845, 2850, 2840, 2848, 2850, 2851, 2847, 2844, 2845, 2846]
ch0 : [2513, 2430, 2352, 2439, 2434, 2449, 2427, 2435, 2515, 2461]
ch1 : [3191, 3190, 3195, 3190, 3193, 3192, 3191, 3196, 3192, 3190]
ch2 : [1488, 1487, 1506, 1504, 1508, 1503, 1515, 1503, 1498, 1490]
ch3 : [2849, 2852, 2855, 2835, 2846, 2846, 2847, 2847, 2846, 2839]
ch0 : [2211, 2390, 2425, 2462, 2476, 2422, 2421, 2518, 2478, 2354]
ch1 : [3192, 3198, 3192, 3194, 3191, 3192, 3192, 3200, 3195, 3191]
ch2 : [1503, 1510, 1508, 1503, 1509, 1502, 1507, 1498, 1497, 1513]
ch3 : [2848, 2852, 2849, 2850, 2843, 2846, 2848, 2847, 2848, 2847]
ch0 : [2468, 2464, 2486, 2471, 2451, 2519, 2518, 2209, 2470, 2486]
ch1 : [3192, 3182, 3194, 3183, 3192, 3189, 3198, 3197, 3192, 3187]
ch2 : [1514, 1514, 1517, 1513, 1512, 1510, 1499, 1510, 1518, 1518]
ch3 : [2849, 2846, 2837, 2846, 2848, 2847, 2844, 2846, 2853, 2847]
ch0 : [2481, 2518, 2452, 2461, 2530, 2527, 2392, 2489, 2488, 2507]
ch1 : [3191, 3187, 3188, 3193, 3190, 3193, 3195, 3190, 3191, 3194]
ch2 : [1518, 1516, 1519, 1515, 1508, 1503, 1519, 1525, 1518, 1519]
ch3 : [2849, 2845, 2848, 2847, 2847, 2852, 2861, 2850, 2843, 2840]
ch0 : [2491, 2461, 2541, 2489, 2204, 2424, 2493, 2499, 2532, 2458]
ch1 : [3190, 3195, 3191, 3194, 3199, 3195, 3191, 3193, 3194, 3192]
ch2 : [1521, 1520, 1519, 1506, 1515, 1527, 1529, 1521, 1514, 1527]
ch3 : [2845, 2848, 2851, 2847, 2848, 2853, 2856, 2846, 2845, 2847]
ch0 : [2451, 2540, 2538, 2376, 2466, 2475, 2497, 2490, 2458, 2553]
ch1 : [3193, 3190, 3191, 3194, 3193, 3192, 3196, 3193, 3197, 3192]
ch2 : [1519, 1519, 1514, 1524, 1530, 1528, 1528, 1525, 1527, 1527]
ch3 : [2848, 2851, 2850, 2850, 2858, 2847, 2858, 2847, 2848, 2849]
ch0 : [2541, 2199, 2426, 2486, 2511, 2527, 2459, 2462, 2544, 2502]
ch1 : [3191, 3193, 3194, 3193, 3190, 3191, 3195, 3191, 3187, 3191]
ch2 : [1511, 1520, 1535, 1532, 1531, 1529, 1529, 1533, 1522, 1510]
ch3 : [2848, 2851, 2852, 2850, 2836, 2849, 2844, 2849, 2847, 2850]
ch0 : [2383, 2480, 2495, 2516, 2497, 2456, 2538, 2474, 2174, 2422]
ch1 : [3196, 3193, 3196, 3191, 3192, 3190, 3192, 3190, 3188, 3191]
ch2 : [1534, 1535, 1533, 1531, 1543, 1529, 1532, 1520, 1520, 1553]
ch3 : [2851, 2840, 2849, 2850, 2847, 2850, 2847, 2836, 2847, 2852]
ch0 : [2477, 2499, 2541, 2467, 2467, 2546, 2544, 2362, 2470, 2489]
ch1 : [3191, 3191, 3194, 3192, 3194, 3193, 3193, 3193, 3192, 3182]
ch2 : [1537, 1538, 1533, 1532, 1533, 1523, 1516, 1532, 1532, 1540]
ch3 : [2856, 2867, 2846, 2847, 2848, 2849, 2852, 2851, 2852, 2850]
ch0 : [2520, 2472, 2461, 2436, 2529, 2178, 2405, 2494, 2505, 2530]
ch1 : [3206, 3193, 3194, 3191, 3188, 3185, 3183, 3195, 3192, 3190]
ch2 : [1534, 1533, 1534, 1539, 1516, 1522, 1538, 1539, 1535, 1529]
ch3 : [2849, 2848, 2845, 2850, 2838, 2847, 2850, 2854, 2851, 2848]
ch0 : [2476, 2469, 2547, 2521, 2349, 2470, 2507, 2519, 2506, 2455]
ch1 : [3187, 3191, 3190, 3193, 3192, 3191, 3191, 3194, 3183, 3193]
ch2 : [1535, 1534, 1527, 1519, 1531, 1524, 1534, 1541, 1549, 1536]
ch3 : [2846, 2849, 2851, 2849, 2853, 2854, 2851, 2851, 2853, 2847]
ch0 : [2429, 2547, 2248, 2389, 2494, 2514, 2542, 2479, 2488, 2534]
ch1 : [3193, 3189, 3198, 3190, 3201, 3192, 3196, 3192, 3193, 3190]
ch2 : [1539, 1523, 1525, 1543, 1541, 1543, 1537, 1539, 1537, 1533]
ch3 : [2850, 2850, 2849, 2852, 2853, 2851, 2847, 2848, 2851, 2848]
ch0 : [2529, 2352, 2464, 2504, 2523, 2501, 2473, 2425, 2551, 2306]
ch1 : [3192, 3194, 3196, 3193, 3194, 3192, 3192, 3194, 3190, 3197]
ch2 : [1528, 1538, 1543, 1540, 1538, 1538, 1539, 1535, 1525, 1518]
ch3 : [2851, 2853, 2861, 2853, 2853, 2851, 2851, 2849, 2849, 2848]
ch0 : [2394, 2513, 2518, 2547, 2489, 2505, 2554, 2557, 2338, 2473]
ch1 : [3189, 3192, 3195, 3191, 3191, 3194, 3194, 3191, 3196, 3193]
ch2 : [1541, 1539, 1538, 1535, 1534, 1536, 1524, 1521, 1528, 1536]
ch3 : [2848, 2854, 2856, 2849, 2847, 2848, 2847, 2851, 2855, 2851]
ch0 : [2504, 2533, 2527, 2480, 2442, 2559, 2409, 2397, 2497, 2523]
ch1 : [3192, 3191, 3193, 3191, 3196, 3191, 3191, 3175, 3193, 3190]
ch2 : [1530, 1533, 1532, 1535, 1530, 1515, 1511, 1535, 1534, 1535]
ch3 : [2851, 2860, 2848, 2850, 2851, 2839, 2843, 2851, 2852, 2855]
ch0 : [2553, 2507, 2491, 2559, 2561, 2318, 2489, 2506, 2530, 2530]
ch1 : [3190, 3190, 3196, 3193, 3192, 3193, 3190, 3192, 3195, 3190]
ch2 : [1529, 1528, 1528, 1523, 1512, 1518, 1532, 1535, 1531, 1531]
ch3 : [2849, 2847, 2849, 2847, 2852, 2853, 2849, 2854, 2838, 2847]
ch0 : [2486, 2444, 2551, 2519, 2388, 2501, 2521, 2548, 2501, 2513]
ch1 : [3190, 3193, 3191, 3196, 3194, 3193, 3191, 3193, 3193, 3191]
ch2 : [1526, 1524, 1517, 1512, 1530, 1531, 1529, 1528, 1529, 1523]
ch3 : [2850, 2847, 2847, 2852, 2848, 2855, 2858, 2853, 2851, 2846]
ch0 : [2559, 2563, 2331, 2477, 2514, 2495, 2539, 2488, 2461, 2561]
ch1 : [3191, 3190, 3207, 3194, 3193, 3193, 3192, 3191, 3190, 3193]
ch2 : [1504, 1513, 1518, 1550, 1530, 1530, 1527, 1525, 1531, 1514]
ch3 : [2851, 2851, 2854, 2860, 2851, 2852, 2854, 2850, 2846, 2851]
ch0 : [2514, 2392, 2490, 2515, 2552, 2511, 2500, 2562, 2544, 2303]
ch1 : [3192, 3193, 3194, 3193, 3185, 3191, 3189, 3203, 3192, 3193]
ch2 : [1511, 1527, 1531, 1529, 1527, 1524, 1524, 1522, 1510, 1518]
ch3 : [2847, 2852, 2856, 2856, 2853, 2851, 2854, 2853, 2855, 2856]
ch0 : [2460, 2517, 2496, 2548, 2487, 2473, 2562, 2562, 2361, 2495]
ch1 : [3190, 3190, 3194, 3192, 3193, 3191, 3192, 3194, 3193, 3196]
ch2 : [1524, 1528, 1528, 1526, 1525, 1525, 1518, 1512, 1526, 1531]
ch3 : [2856, 2852, 2852, 2853, 2853, 2854, 2853, 2853, 2856, 2854]
ch0 : [2521, 2555, 2500, 2508, 2561, 2555, 2296, 2470, 2512, 2501]
ch1 : [3194, 3189, 3191, 3200, 3189, 3190, 3184, 3191, 3190, 3188]
ch2 : [1528, 1524, 1524, 1534, 1526, 1510, 1519, 1529, 1530, 1526]
ch3 : [2855, 2856, 2850, 2853, 2853, 2860, 2858, 2855, 2854, 2857]
ch0 : [2495, 2559, 2568, 2295, 2469, 2518, 2507, 2526, 2484, 2487]
ch1 : [3194, 3192, 3191, 3195, 3191, 3191, 3195, 3191, 3179, 3191]
ch2 : [1523, 1523, 1509, 1515, 1528, 1529, 1525, 1527, 1526, 1528]
ch3 : [2853, 2854, 2850, 2855, 2860, 2860, 2856, 2855, 2854, 2856]
ch0 : [2566, 2464, 2334, 2493, 2520, 2558, 2511, 2475, 2551, 2565]
ch1 : [3191, 3194, 3191, 3192, 3191, 3188, 3191, 3193, 3189, 3194]
ch2 : [1515, 1507, 1525, 1533, 1529, 1526, 1524, 1523, 1526, 1512]
ch3 : [2853, 2852, 2856, 2860, 2857, 2842, 2849, 2851, 2850, 2858]
ch0 : [2314, 2451, 2522, 2495, 2535, 2501, 2492, 2568, 2459, 2320]
ch1 : [3180, 3190, 3193, 3185, 3193, 3196, 3193, 3185, 3192, 3190]
ch2 : [1513, 1526, 1528, 1527, 1523, 1515, 1523, 1514, 1512, 1522]
ch3 : [2855, 2855, 2855, 2854, 2856, 2854, 2857, 2856, 2852, 2845]
ch0 : [2475, 2508, 2551, 2515, 2494, 2518, 2560, 2423, 2458, 2531]
ch1 : [3192, 3186, 3193, 3191, 3196, 3193, 3187, 3186, 3190, 3192]
ch2 : [1526, 1532, 1525, 1528, 1522, 1523, 1510, 1497, 1526, 1531]
ch3 : [2856, 2858, 2855, 2854, 2852, 2852, 2857, 2857, 2860, 2857]
ch0 : [2502, 2510, 2494, 2491, 2569, 2527, 2301, 2497, 2521, 2562]
ch1 : [3194, 3196, 3192, 3194, 3191, 3191, 3192, 3188, 3190, 3189]
ch2 : [1526, 1524, 1527, 1525, 1519, 1505, 1522, 1530, 1531, 1522]
ch3 : [2856, 2853, 2852, 2856, 2856, 2853, 2855, 2858, 2855, 2854]
ch0 : [2537, 2482, 2488, 2566, 2496, 2440, 2496, 2484, 2529, 2527]
ch1 : [3190, 3191, 3193, 3205, 3192, 3194, 3189, 3194, 3191, 3189]
ch2 : [1528, 1524, 1526, 1511, 1513, 1531, 1532, 1527, 1523, 1522]
ch3 : [2852, 2853, 2853, 2854, 2856, 2858, 2860, 2855, 2852, 2852]
ch0 : [2519, 2570, 2576, 2293, 2503, 2504, 2560, 2538, 2547, 2513]
ch1 : [3186, 3187, 3191, 3193, 3184, 3190, 3194, 3187, 3193, 3192]
ch2 : [1529, 1520, 1515, 1523, 1531, 1533, 1528, 1526, 1527, 1531]
ch3 : [2853, 2853, 2851, 2855, 2857, 2861, 2857, 2856, 2851, 2854]
ch0 : [2573, 2458, 2438, 2560, 2511, 2546, 2524, 2507, 2575, 2539]
ch1 : [3192, 3191, 3190, 3191, 3190, 3190, 3193, 3190, 3189, 3190]
ch2 : [1519, 1509, 1529, 1535, 1528, 1532, 1527, 1529, 1518, 1510]
ch3 : [2857, 2854, 2855, 2856, 2855, 2854, 2856, 2852, 2852, 2852]
ch0 : [2255, 2471, 2519, 2564, 2566, 2462, 2445, 2567, 2493, 2444]
ch1 : [3192, 3191, 3187, 3188, 3201, 3200, 3193, 3195, 3193, 3192]
ch2 : [1525, 1535, 1531, 1527, 1526, 1527, 1527, 1515, 1512, 1523]
ch3 : [2857, 2862, 2851, 2857, 2851, 2852, 2842, 2860, 2866, 2858]
ch0 : [2557, 2565, 2571, 2523, 2470, 2577, 2576, 2296, 2459, 2492]
ch1 : [3188, 3193, 3190, 3189, 3177, 3192, 3187, 3191, 3192, 3195]
ch2 : [1531, 1527, 1528, 1526, 1525, 1523, 1510, 1511, 1531, 1528]
ch3 : [2855, 2855, 2854, 2857, 2860, 2855, 2853, 2857, 2861, 2858]
ch0 : [2468, 2496, 2467, 2504, 2567, 2511, 2420, 2553, 2476, 2561]
ch1 : [3191, 3189, 3189, 3191, 3189, 3187, 3191, 3193, 3193, 3193]
ch2 : [1523, 1514, 1523, 1520, 1514, 1512, 1521, 1527, 1525, 1526]
ch3 : [2841, 2850, 2847, 2852, 2849, 2852, 2853, 2855, 2854, 2850]
ch0 : [2562, 2522, 2566, 2443, 2219, 2551, 2560, 2574, 2411, 2274]
ch1 : [3190, 3199, 3193, 3194, 3192, 3190, 3196, 3193, 3196, 3194]
ch2 : [1526, 1525, 1524, 1513, 1522, 1530, 1530, 1528, 1521, 1535]
ch3 : [2852, 2856, 2857, 2847, 2850, 2859, 2860, 2855, 2847, 2851]
ch0 : [2553, 2571, 2513, 2365, 2397, 2501, 2532, 2477, 2413, 2554]
ch1 : [3189, 3193, 3192, 3187, 3195, 3193, 3191, 3191, 3188, 3190]
ch2 : [1525, 1513, 1525, 1527, 1529, 1529, 1522, 1522, 1523, 1525]
ch3 : [2852, 2847, 2855, 2857, 2852, 2854, 2850, 2858, 2851, 2850]
ch0 : [2564, 2237, 2349, 2411, 2432, 2548, 2555, 2451, 2554, 2418]
ch1 : [3193, 3190, 3197, 3193, 3191, 3190, 3191, 3190, 3193, 3191]
ch2 : [1509, 1502, 1527, 1530, 1524, 1527, 1526, 1531, 1510, 1507]
ch3 : [2851, 2853, 2853, 2856, 2854, 2852, 2850, 2848, 2852, 2855]
ch0 : [2412, 2558, 2545, 2390, 2388, 2433, 2432, 2570, 2064, 2349]
ch1 : [3195, 3192, 3194, 3191, 3195, 3193, 3192, 3196, 3196, 3191]
ch2 : [1525, 1524, 1525, 1524, 1519, 1525, 1521, 1510, 1510, 1526]
ch3 : [2856, 2854, 2849, 2851, 2852, 2852, 2854, 2850, 2852, 2851]
ch0 : [2541, 2488, 2434, 2448, 2532, 2547, 2495, 2280, 2357, 2369]
ch1 : [3195, 3193, 3192, 3193, 3185, 3192, 3198, 3201, 3193, 3191]
ch2 : [1522, 1523, 1517, 1517, 1519, 1513, 1506, 1519, 1525, 1525]
ch3 : [2857, 2856, 2850, 2861, 2851, 2852, 2854, 2855, 2854, 2851]
ch0 : [2499, 2525, 2540, 2544, 2560, 2071, 2235, 2439, 2458, 2531]
ch1 : [3191, 3187, 3190, 3194, 3188, 3189, 3190, 3191, 3197, 3190]
ch2 : [1520, 1518, 1529, 1519, 1503, 1505, 1519, 1525, 1519, 1520]
ch3 : [2850, 2850, 2853, 2853, 2849, 2852, 2858, 2855, 2856, 2850]
ch0 : [2469, 2479, 2546, 2548, 2332, 2295, 2383, 2528, 2541, 2460]
ch1 : [3193, 3191, 3195, 3194, 3195, 3191, 3190, 3195, 3191, 3190]
ch2 : [1513, 1517, 1506, 1498, 1517, 1517, 1522, 1520, 1519, 1524]
ch3 : [2850, 2847, 2848, 2857, 2855, 2854, 2853, 2855, 2852, 2851]
ch0 : [2359, 2535, 2235, 2404, 2510, 2519, 2536, 2391, 2437, 2537]
ch1 : [3188, 3186, 3192, 3196, 3191, 3200, 3191, 3194, 3192, 3194]
ch2 : [1525, 1506, 1506, 1525, 1524, 1524, 1514, 1519, 1519, 1515]
ch3 : [2858, 2864, 2852, 2856, 2861, 2857, 2857, 2864, 2852, 2855]
ch0 : [2373, 2210, 2432, 2447, 2530, 2528, 2348, 2335, 2469, 2334]
ch1 : [3191, 3190, 3196, 3187, 3196, 3194, 3193, 3195, 3204, 3191]
ch2 : [1506, 1517, 1521, 1526, 1526, 1526, 1521, 1523, 1512, 1500]
ch3 : [2855, 2859, 2854, 2855, 2860, 2858, 2855, 2859, 2857, 2856]
ch0 : [2342, 2471, 2459, 2432, 2362, 2458, 2511, 2467, 2277, 2395]
ch1 : [3196, 3205, 3189, 3196, 3196, 3194, 3189, 3196, 3195, 3192]
ch2 : [1525, 1527, 1526, 1517, 1520, 1521, 1517, 1505, 1518, 1523]
ch3 : [2852, 2858, 2852, 2857, 2852, 2849, 2851, 2855, 2854, 2851]
ch0 : [2510, 2511, 2449, 2289, 2329, 2511, 2361, 2312, 2323, 2497]
ch1 : [3193, 3189, 3191, 3188, 3195, 3196, 3195, 3203, 3196, 3193]
ch2 : [1525, 1522, 1519, 1521, 1521, 1508, 1506, 1521, 1524, 1522]
ch3 : [2853, 2853, 2856, 2852, 2856, 2851, 2847, 2855, 2857, 2857]
ch0 : [2504, 2445, 2420, 2512, 2430, 2310, 2468, 2379, 2336, 2427]
ch1 : [3189, 3193, 3189, 3193, 3195, 3200, 3191, 3193, 3195, 3192]
ch2 : [1522, 1523, 1526, 1514, 1509, 1516, 1523, 1518, 1523, 1516]
ch3 : [2851, 2849, 2847, 2853, 2856, 2856, 2855, 2852, 2857, 2852]
ch0 : [2469, 2444, 2428, 2414, 2263, 2321, 2284, 2469, 2454, 2434]
ch1 : [3192, 3193, 3191, 3191, 3195, 3197, 3196, 3193, 3191, 3192]
ch2 : [1523, 1518, 1514, 1505, 1523, 1527, 1519, 1519, 1518, 1528]
ch3 : [2855, 2852, 2852, 2853, 2856, 2856, 2854, 2851, 2851, 2860]
ch0 : [2501, 2500, 2262, 2370, 2432, 2364, 2467, 2338, 2264, 2489]
ch1 : [3190, 3191, 3194, 3195, 3192, 3199, 3196, 3197, 3190, 3191]
ch2 : [1521, 1508, 1509, 1523, 1525, 1524, 1522, 1521, 1516, 1508]
ch3 : [2851, 2854, 2855, 2855, 2851, 2855, 2850, 2856, 2855, 2858]
ch0 : [2466, 2274, 2475, 2425, 2452, 2386, 2413, 2480, 2473, 2163]
ch1 : [3193, 3191, 3194, 3196, 3193, 3194, 3195, 3191, 3190, 3194]
ch2 : [1505, 1525, 1526, 1525, 1518, 1524, 1519, 1521, 1505, 1507]
ch3 : [2851, 2854, 2852, 2861, 2852, 2852, 2854, 2855, 2857, 2855]
ch0 : [2357, 2403, 2410, 2438, 2388, 2359, 2487, 2409, 2226, 2381]
ch1 : [3190, 3194, 3191, 3183, 3188, 3196, 3182, 3193, 3189, 3193]
ch2 : [1524, 1525, 1510, 1524, 1523, 1527, 1510, 1504, 1524, 1523]
ch3 : [2856, 2855, 2855, 2852, 2856, 2850, 2855, 2852, 2856, 2858]
ch0 : [2444, 2317, 2187, 2479, 2474, 2237, 2359, 2404, 2481, 2356]
ch1 : [3193, 3195, 3197, 3193, 3193, 3196, 3193, 3191, 3193, 3192]
ch2 : [1525, 1523, 1527, 1517, 1509, 1523, 1528, 1527, 1524, 1525]
ch3 : [2856, 2858, 2856, 2843, 2857, 2858, 2859, 2858, 2857, 2848]
ch0 : [2350, 2480, 2440, 2156, 2386, 2387, 2433, 2426, 2201, 2285]
ch1 : [3191, 3195, 3195, 3191, 3193, 3196, 3195, 3196, 3195, 3196]
ch2 : [1525, 1526, 1514, 1503, 1527, 1528, 1526, 1523, 1525, 1527]
ch3 : [2853, 2851, 2856, 2860, 2861, 2857, 2849, 2856, 2851, 2855]
ch0 : [2475, 2415, 2226, 2395, 2448, 2443, 2336, 2304, 2358, 2455]
ch1 : [3192, 3192, 3193, 3187, 3193, 3193, 3195, 3184, 3192, 3192]
ch2 : [1515, 1507, 1523, 1528, 1528, 1529, 1522, 1528, 1522, 1506]
ch3 : [2855, 2855, 2858, 2867, 2859, 2856, 2856, 2854, 2858, 2854]
ch0 : [2217, 2354, 2409, 2431, 2400, 2348, 2333, 2476, 2461, 2139]
ch1 : [3205, 3193, 3191, 3191, 3195, 3192, 3193, 3195, 3191, 3194]
ch2 : [1509, 1538, 1526, 1523, 1523, 1522, 1509, 1518, 1509, 1524]
ch3 : [2861, 2860, 2853, 2857, 2865, 2857, 2856, 2861, 2855, 2857]
ch0 : [2319, 2457, 2470, 2302, 2357, 2413, 2478, 2260, 2348, 2374]
ch1 : [3195, 3191, 3188, 3194, 3191, 3192, 3194, 3194, 3205, 3192]
ch2 : [1530, 1527, 1526, 1520, 1525, 1523, 1510, 1510, 1526, 1529]
ch3 : [2855, 2855, 2858, 2850, 2855, 2856, 2854, 2873, 2858, 2855]
ch0 : [2328, 2375, 2391, 2377, 2455, 2414, 2165, 2354, 2389, 2468]
ch1 : [3193, 3195, 3191, 3195, 3197, 3196, 3194, 3193, 3191, 3192]
ch2 : [1519, 1524, 1522, 1522, 1514, 1504, 1518, 1521, 1529, 1524]
ch3 : [2859, 2856, 2852, 2860, 2859, 2856, 2859, 2862, 2862, 2857]
ch0 : [2419, 2366, 2385, 2491, 2302, 2286, 2401, 2418, 2433, 2378]
ch1 : [3191, 3194, 3188, 3195, 3192, 3194, 3200, 3192, 3196, 3197]
ch2 : [1521, 1521, 1522, 1506, 1513, 1524, 1526, 1524, 1523, 1521]
ch3 : [2860, 2847, 2859, 2860, 2860, 2861, 2860, 2869, 2860, 2856]
ch0 : [2367, 2484, 2414, 2140, 2345, 2459, 2479, 2396, 2293, 2306]
ch1 : [3192, 3194, 3188, 3197, 3186, 3191, 3193, 3196, 3193, 3195]
ch2 : [1520, 1519, 1509, 1518, 1527, 1531, 1519, 1521, 1531, 1513]
ch3 : [2859, 2857, 2858, 2860, 2863, 2862, 2860, 2854, 2857, 2858]
ch0 : [2483, 2386, 2312, 2375, 2388, 2420, 2379, 2358, 2476, 2416]
ch1 : [3193, 3195, 3179, 3193, 3194, 3193, 3192, 3192, 3195, 3191]
ch2 : [1512, 1501, 1521, 1524, 1535, 1523, 1524, 1520, 1519, 1506]
ch3 : [2859, 2855, 2874, 2857, 2862, 2859, 2860, 2861, 2858, 2860]
ch0 : [2156, 2354, 2392, 2414, 2441, 2384, 2375, 2484, 2429, 2316]
ch1 : [3195, 3194, 3192, 3192, 3193, 3196, 3197, 3196, 3193, 3194]
ch2 : [1520, 1527, 1522, 1515, 1520, 1521, 1521, 1510, 1508, 1515]
ch3 : [2861, 2855, 2860, 2865, 2859, 2859, 2859, 2860, 2863, 2864]
ch0 : [2414, 2415, 2438, 2401, 2403, 2486, 2443, 2146, 2346, 2420]
ch1 : [3193, 3194, 3193, 3193, 3191, 3193, 3183, 3191, 3194, 3193]
ch2 : [1528, 1526, 1522, 1523, 1508, 1520, 1521, 1516, 1531, 1524]
ch3 : [2859, 2862, 2859, 2861, 2861, 2859, 2860, 2860, 2868, 2861]
ch0 : [2426, 2437, 2374, 2385, 2488, 2449, 2290, 2412, 2406, 2441]
ch1 : [3189, 3191, 3194, 3196, 3193, 3180, 3193, 3194, 3193, 3194]
ch2 : [1519, 1520, 1521, 1526, 1512, 1513, 1519, 1526, 1525, 1524]
ch3 : [2862, 2859, 2866, 2860, 2862, 2864, 2864, 2864, 2861, 2860]
ch0 : [2409, 2386, 2493, 2438, 2128, 2357, 2416, 2411, 2453, 2396]
ch1 : [3193, 3179, 3192, 3193, 3194, 3192, 3191, 3190, 3186, 3192]
ch2 : [1518, 1526, 1524, 1509, 1515, 1525, 1522, 1520, 1523, 1524]
ch3 : [2860, 2865, 2861, 2859, 2859, 2869, 2864, 2863, 2860, 2859]
ch0 : [2377, 2494, 2440, 2320, 2417, 2432, 2459, 2437, 2425, 2489]
ch1 : [3191, 3191, 3194, 3192, 3195, 3197, 3193, 3192, 3201, 3192]
ch2 : [1525, 1520, 1510, 1522, 1529, 1525, 1530, 1517, 1525, 1521]
ch3 : [2857, 2861, 2864, 2866, 2860, 2862, 2849, 2857, 2863, 2862]
ch0 : [2487, 2155, 2393, 2463, 2481, 2492, 2443, 2447, 2517, 2472]
ch1 : [3190, 3198, 3193, 3193, 3195, 3193, 3193, 3189, 3200, 3193]
ch2 : [1507, 1516, 1527, 1511, 1523, 1522, 1522, 1516, 1520, 1505]
ch3 : [2859, 2862, 2863, 2865, 2865, 2861, 2864, 2862, 2858, 2859]
ch0 : [2347, 2452, 2461, 2493, 2473, 2424, 2430, 2453, 2132, 2390]
ch1 : [3194, 3193, 3191, 3193, 3194, 3200, 3196, 3196, 3195, 3193]
ch2 : [1523, 1519, 1527, 1524, 1521, 1521, 1522, 1505, 1511, 1525]
ch3 : [2863, 2862, 2863, 2864, 2861, 2861, 2864, 2861, 2865, 2863]
ch0 : [2462, 2465, 2489, 2438, 2432, 2514, 2455, 2309, 2426, 2427]
ch1 : [3191, 3192, 3185, 3195, 3195, 3190, 3195, 3197, 3195, 3190]
ch2 : [1522, 1524, 1518, 1516, 1517, 1495, 1504, 1515, 1517, 1521]
ch3 : [2861, 2863, 2864, 2846, 2858, 2859, 2864, 2866, 2862, 2865]
ch0 : [2468, 2456, 2379, 2375, 2450, 2163, 2360, 2402, 2427, 2491]
ch1 : [3193, 3196, 3195, 3177, 3190, 3197, 3196, 3191, 3187, 3194]
ch2 : [1515, 1515, 1513, 1510, 1491, 1501, 1514, 1511, 1512, 1510]
ch3 : [2858, 2851, 2864, 2862, 2864, 2860, 2864, 2867, 2867, 2863]
ch0 : [2393, 2435, 2514, 2476, 2296, 2400, 2421, 2452, 2436, 2391]
ch1 : [3193, 3193, 3192, 3193, 3191, 3194, 3194, 3189, 3191, 3197]
ch2 : [1509, 1508, 1491, 1478, 1509, 1511, 1508, 1507, 1509, 1505]
ch3 : [2860, 2866, 2863, 2863, 2867, 2865, 2870, 2862, 2864, 2868]
ch0 : [2377, 2494, 2163, 2318, 2420, 2445, 2493, 2397, 2445, 2512]
ch1 : [3192, 3194, 3195, 3192, 3191, 3193, 3196, 3193, 3187, 3191]
ch2 : [1504, 1487, 1493, 1503, 1511, 1503, 1502, 1498, 1500, 1499]
ch3 : [2864, 2861, 2860, 2870, 2866, 2866, 2863, 2861, 2860, 2864]
ch0 : [2340, 2446, 2484, 2507, 2430, 2452, 2510, 2507, 2297, 2436]
ch1 : [3196, 3195, 3194, 3194, 3193, 3195, 3192, 3193, 3182, 3194]
ch2 : [1514, 1523, 1506, 1507, 1509, 1510, 1505, 1498, 1508, 1510]
ch3 : [2868, 2867, 2868, 2865, 2861, 2860, 2867, 2866, 2862, 2866]
ch0 : [2456, 2486, 2477, 2440, 2407, 2518, 2405, 2348, 2447, 2481]
ch1 : [3190, 3193, 3195, 3200, 3196, 3191, 3194, 3198, 3188, 3193]
ch2 : [1511, 1513, 1513, 1514, 1515, 1501, 1501, 1522, 1524, 1517]
ch3 : [2861, 2863, 2865, 2863, 2870, 2863, 2864, 2870, 2880, 2867]
ch0 : [2499, 2447, 2448, 2515, 2507, 2284, 2432, 2467, 2483, 2471]
ch1 : [3180, 3191, 3194, 3189, 3192, 3192, 3192, 3180, 3194, 3193]
ch2 : [1523, 1517, 1517, 1512, 1508, 1515, 1526, 1523, 1522, 1529]
ch3 : [2862, 2867, 2863, 2864, 2868, 2865, 2866, 2867, 2863, 2868]
ch0 : [2431, 2402, 2524, 2386, 2345, 2450, 2470, 2528, 2451, 2453]
ch1 : [3195, 3191, 3192, 3193, 3194, 3198, 3194, 3196, 3192, 3193]
ch2 : [1531, 1523, 1516, 1509, 1531, 1531, 1530, 1525, 1523, 1525]
ch3 : [2862, 2854, 2862, 2860, 2865, 2865, 2868, 2862, 2861, 2862]
ch0 : [2528, 2519, 2265, 2441, 2474, 2458, 2488, 2449, 2424, 2532]
ch1 : [3194, 3192, 3200, 3202, 3192, 3192, 3189, 3195, 3193, 3193]
ch2 : [1518, 1516, 1522, 1530, 1530, 1528, 1521, 1529, 1529, 1516]
ch3 : [2861, 2867, 2871, 2863, 2865, 2865, 2868, 2863, 2862, 2868]
ch0 : [2423, 2337, 2449, 2493, 2521, 2462, 2459, 2532, 2518, 2272]
ch1 : [3195, 3205, 3196, 3196, 3189, 3194, 3189, 3191, 3196, 3193]
ch2 : [1510, 1529, 1533, 1535, 1528, 1530, 1524, 1527, 1516, 1519]
ch3 : [2861, 2867, 2866, 2867, 2866, 2861, 2874, 2866, 2863, 2868]
ch0 : [2447, 2482, 2473, 2491, 2458, 2418, 2539, 2447, 2342, 2446]
ch1 : [3189, 3191, 3197, 3188, 3192, 3196, 3194, 3193, 3195, 3193]
ch2 : [1535, 1534, 1535, 1537, 1532, 1535, 1520, 1513, 1538, 1537]
ch3 : [2870, 2862, 2864, 2867, 2864, 2865, 2863, 2868, 2853, 2867]
ch0 : [2493, 2527, 2473, 2466, 2532, 2536, 2265, 2440, 2498, 2479]
ch1 : [3191, 3195, 3193, 3198, 3187, 3194, 3191, 3193, 3196, 3195]
ch2 : [1538, 1531, 1530, 1537, 1531, 1516, 1519, 1539, 1535, 1536]
ch3 : [2864, 2864, 2857, 2866, 2866, 2865, 2864, 2861, 2869, 2863]
ch0 : [2505, 2472, 2434, 2541, 2504, 2335, 2461, 2488, 2533, 2495]
ch1 : [3189, 3194, 3192, 3193, 3196, 3194, 3189, 3193, 3193, 3190]
ch2 : [1532, 1528, 1539, 1523, 1518, 1535, 1535, 1534, 1533, 1535]
ch3 : [2862, 2863, 2865, 2862, 2861, 2866, 2864, 2867, 2862, 2857]
ch0 : [2457, 2538, 2524, 2261, 2431, 2490, 2481, 2493, 2475, 2439]
ch1 : [3192, 3192, 3191, 3195, 3193, 3196, 3193, 3195, 3192, 3192]
ch2 : [1531, 1537, 1514, 1523, 1535, 1535, 1533, 1541, 1533, 1527]
ch3 : [2863, 2870, 2856, 2869, 2863, 2870, 2864, 2866, 2862, 2862]
ch0 : [2268, 2423, 2491, 2477, 2489, 2474, 2455, 2545, 2489, 2293]
ch1 : [3194, 3195, 3191, 3193, 3193, 3194, 3190, 3197, 3195, 3193]
ch2 : [1518, 1532, 1539, 1530, 1529, 1529, 1523, 1519, 1510, 1528]
ch3 : [2872, 2868, 2867, 2867, 2863, 2863, 2864, 2865, 2865, 2866]
ch0 : [2452, 2488, 2539, 2501, 2450, 2484, 2528, 2352, 2422, 2498]
ch1 : [3191, 3197, 3192, 3187, 3200, 3201, 3196, 3194, 3192, 3195]
ch2 : [1533, 1530, 1528, 1523, 1527, 1528, 1515, 1516, 1528, 1533]
ch3 : [2872, 2868, 2867, 2862, 2865, 2863, 2868, 2866, 2866, 2869]
ch0 : [2480, 2517, 2454, 2448, 2546, 2505, 2293, 2454, 2493, 2531]
ch1 : [3192, 3191, 3192, 3196, 3190, 3192, 3191, 3192, 3192, 3190]
ch2 : [1528, 1529, 1527, 1529, 1523, 1513, 1529, 1532, 1530, 1528]
ch3 : [2866, 2875, 2868, 2868, 2865, 2859, 2866, 2868, 2870, 2863]
ch0 : [2493, 2438, 2458, 2543, 2389, 2422, 2497, 2475, 2487, 2472]
ch1 : [3191, 3193, 3191, 3194, 3186, 3192, 3190, 3191, 3190, 3191]
ch2 : [1526, 1529, 1532, 1521, 1516, 1532, 1532, 1526, 1529, 1531]
ch3 : [2864, 2860, 2864, 2864, 2868, 2865, 2859, 2865, 2864, 2867]
ch0 : [2483, 2547, 2441, 2285, 2447, 2512, 2536, 2508, 2460, 2450]
ch1 : [3192, 3193, 3192, 3191, 3200, 3200, 3192, 3197, 3195, 3193]
ch2 : [1533, 1522, 1515, 1526, 1535, 1533, 1531, 1531, 1528, 1516]
ch3 : [2864, 2859, 2864, 2869, 2866, 2869, 2866, 2856, 2864, 2863]
ch0 : [2538, 2420, 2417, 2497, 2490, 2515, 2484, 2475, 2551, 2482]
ch1 : [3201, 3191, 3194, 3191, 3194, 3191, 3196, 3193, 3202, 3192]
ch2 : [1518, 1517, 1530, 1532, 1531, 1527, 1529, 1525, 1522, 1514]
ch3 : [2878, 2871, 2867, 2867, 2868, 2863, 2866, 2865, 2871, 2864]
ch0 : [2257, 2429, 2495, 2532, 2523, 2462, 2439, 2539, 2471, 2409]
ch1 : [3190, 3188, 3196, 3193, 3190, 3191, 3195, 3188, 3194, 3191]
ch2 : [1517, 1529, 1530, 1527, 1526, 1524, 1526, 1515, 1513, 1525]
ch3 : [2868, 2863, 2869, 2868, 2862, 2870, 2863, 2868, 2871, 2866]
ch0 : [2483, 2474, 2506, 2479, 2469, 2549, 2519, 2245, 2442, 2486]
ch1 : [3193, 3193, 3188, 3187, 3194, 3187, 3195, 3195, 3196, 3192]
ch2 : [1541, 1526, 1532, 1520, 1525, 1519, 1510, 1517, 1528, 1522]
ch3 : [2872, 2867, 2866, 2867, 2865, 2863, 2864, 2867, 2871, 2870]
ch0 : [2493, 2522, 2471, 2439, 2548, 2451, 2401, 2478, 2489, 2505]
ch1 : [3187, 3187, 3196, 3190, 3193, 3192, 3194, 3187, 3192, 3191]
ch2 : [1515, 1506, 1524, 1526, 1514, 1515, 1526, 1528, 1528, 1525]
ch3 : [2867, 2859, 2863, 2863, 2865, 2882, 2869, 2870, 2864, 2859]
ch0 : [2498, 2463, 2546, 2551, 2221, 2449, 2493, 2500, 2527, 2480]
ch1 : [3193, 3192, 3190, 3192, 3196, 3196, 3193, 3195, 3189, 3193]
ch2 : [1525, 1519, 1525, 1510, 1516, 1529, 1512, 1525, 1523, 1535]
ch3 : [2868, 2870, 2867, 2864, 2870, 2877, 2869, 2868, 2864, 2859]
ch0 : [2524, 2198, 2439, 2496, 2501, 2523, 2468, 2466, 2549, 2501]
ch1 : [3191, 3191, 3191, 3193, 3183, 3194, 3193, 3196, 3192, 3190]
ch2 : [1510, 1513, 1517, 1527, 1529, 1524, 1522, 1524, 1529, 1512]
ch3 : [2869, 2869, 2869, 2869, 2873, 2863, 2865, 2864, 2867, 2866]
ch0 : [2377, 2484, 2493, 2528, 2479, 2467, 2544, 2531, 2204, 2418]
ch1 : [3192, 3196, 3192, 3190, 3193, 3196, 3183, 3187, 3196, 3192]
ch2 : [1528, 1531, 1527, 1529, 1526, 1525, 1520, 1518, 1515, 1528]
ch3 : [2883, 2871, 2869, 2867, 2868, 2868, 2872, 2865, 2866, 2872]
ch0 : [2491, 2506, 2528, 2477, 2472, 2543, 2529, 2376, 2501, 2488]
ch1 : [3190, 3192, 3191, 3192, 3187, 3188, 3191, 3192, 3194, 3192]
ch2 : [1531, 1525, 1524, 1523, 1527, 1515, 1515, 1525, 1524, 1534]
ch3 : [2870, 2876, 2864, 2864, 2866, 2868, 2870, 2867, 2881, 2872]
ch0 : [2537, 2502, 2460, 2538, 2550, 2184, 2423, 2494, 2495, 2544]
ch1 : [3193, 3195, 3194, 3191, 3190, 3196, 3188, 3195, 3193, 3189]
ch2 : [1525, 1527, 1524, 1525, 1508, 1513, 1531, 1527, 1528, 1525]
ch3 : [2868, 2867, 2868, 2870, 2868, 2866, 2871, 2870, 2870, 2865]
ch0 : [2478, 2468, 2549, 2545, 2371, 2505, 2543, 2547, 2495, 2474]
ch1 : [3191, 3190, 3192, 3192, 3191, 3195, 3194, 3192, 3191, 3190]
ch2 : [1523, 1527, 1517, 1532, 1528, 1529, 1528, 1528, 1513, 1525]
ch3 : [2868, 2877, 2867, 2867, 2870, 2869, 2869, 2881, 2870, 2866]
ch0 : [2495, 2560, 2178, 2408, 2460, 2529, 2539, 2452, 2444, 2551]
ch1 : [3187, 3195, 3199, 3189, 3191, 3191, 3193, 3191, 3194, 3191]
ch2 : [1525, 1514, 1527, 1531, 1532, 1529, 1525, 1526, 1525, 1523]
ch3 : [2874, 2867, 2867, 2872, 2868, 2867, 2868, 2867, 2863, 2867]
ch0 : [2483, 2331, 2467, 2484, 2509, 2546, 2467, 2423, 2527, 2321]
ch1 : [3196, 3193, 3193, 3195, 3193, 3190, 3194, 3193, 3191, 3193]
ch2 : [1514, 1527, 1533, 1532, 1533, 1528, 1525, 1530, 1511, 1516]
ch3 : [2871, 2873, 2868, 2865, 2869, 2870, 2868, 2868, 2864, 2865]
ch0 : [2461, 2448, 2492, 2535, 2428, 2534, 2550, 2511, 2423, 2553]
ch1 : [3181, 3193, 3195, 3178, 3189, 3191, 3191, 3194, 3195, 3197]
ch2 : [1523, 1535, 1530, 1529, 1523, 1543, 1524, 1518, 1529, 1530]
ch3 : [2872, 2870, 2868, 2865, 2862, 2868, 2865, 2866, 2872, 2868]
ch0 : [2496, 2537, 2553, 2516, 2461, 2543, 2306, 2414, 2457, 2553]
ch1 : [3194, 3193, 3193, 3193, 3188, 3190, 3192, 3190, 3193, 3191]
ch2 : [1535, 1537, 1534, 1531, 1531, 1520, 1514, 1533, 1531, 1531]
ch3 : [2869, 2868, 2868, 2854, 2867, 2871, 2866, 2864, 2870, 2866]
ch0 : [2554, 2463, 2447, 2570, 2577, 2319, 2413, 2320, 2390, 2418]
ch1 : [3192, 3196, 3191, 3198, 3193, 3196, 3193, 3197, 3194, 3190]
ch2 : [1535, 1532, 1526, 1529, 1516, 1527, 1535, 1535, 1531, 1534]
ch3 : [2865, 2862, 2862, 2865, 2867, 2869, 2872, 2876, 2865, 2872]
ch0 : [2553, 2506, 2256, 2403, 2462, 2509, 2544, 2461, 2399, 2542]
ch1 : [3188, 3192, 3193, 3195, 3196, 3190, 3191, 3196, 3193, 3187]
ch2 : [1524, 1511, 1529, 1533, 1534, 1534, 1528, 1527, 1530, 1516]
ch3 : [2866, 2866, 2869, 2863, 2879, 2867, 2863, 2880, 2867, 2869]
ch0 : [2408, 2318, 2456, 2516, 2534, 2433, 2432, 2538, 2542, 2197]
ch1 : [3194, 3194, 3194, 3205, 3190, 3190, 3191, 3187, 3194, 3196]
ch2 : [1514, 1528, 1540, 1531, 1541, 1527, 1533, 1522, 1513, 1521]
ch3 : [2867, 2870, 2872, 2867, 2868, 2863, 2866, 2877, 2868, 2868]
ch0 : [2533, 2489, 2528, 2473, 2435, 2435, 2538, 2447, 2208, 2392]
ch1 : [3193, 3194, 3187, 3191, 3194, 3195, 3194, 3188, 3195, 3194]
ch2 : [1535, 1532, 1528, 1528, 1529, 1524, 1515, 1509, 1528, 1532]
ch3 : [2869, 2867, 2865, 2859, 2868, 2863, 2863, 2865, 2878, 2872]
ch0 : [2476, 2529, 2422, 2522, 2541, 2463, 2072, 2277, 2515, 2524]
ch1 : [3191, 3194, 3194, 3183, 3192, 3192, 3194, 3196, 3187, 3193]
ch2 : [1534, 1527, 1517, 1523, 1516, 1518, 1521, 1527, 1528, 1527]
ch3 : [2867, 2865, 2865, 2859, 2866, 2865, 2870, 2868, 2877, 2866]
ch0 : [2535, 2357, 2352, 2527, 2534, 2228, 2336, 2408, 2519, 2518]
ch1 : [3194, 3196, 3193, 3207, 3193, 3197, 3191, 3192, 3190, 3191]
ch2 : [1523, 1524, 1523, 1509, 1509, 1526, 1514, 1523, 1529, 1529]
ch3 : [2866, 2868, 2866, 2864, 2863, 2868, 2867, 2868, 2867, 2865]
ch0 : [2511, 2534, 2522, 2188, 2387, 2353, 2433, 2515, 2471, 2510]
ch1 : [3195, 3189, 3192, 3193, 3192, 3193, 3193, 3191, 3193, 3192]
ch2 : [1524, 1523, 1513, 1518, 1532, 1534, 1545, 1538, 1531, 1533]
ch3 : [2866, 2870, 2868, 2873, 2869, 2866, 2870, 2867, 2867, 2866]
ch0 : [2531, 2338, 2181, 2466, 2508, 2519, 2394, 2486, 2519, 2420]
ch1 : [3188, 3192, 3196, 3194, 3192, 3195, 3192, 3191, 3193, 3193]
ch2 : [1523, 1518, 1527, 1540, 1537, 1533, 1533, 1535, 1535, 1521]
ch3 : [2866, 2863, 2868, 2873, 2875, 2866, 2869, 2861, 2870, 2867]
ch0 : [2197, 2378, 2450, 2462, 2513, 2455, 2404, 2502, 2512, 2189]
ch1 : [3194, 3197, 3195, 3191, 3193, 3195, 3193, 3195, 3193, 3197]
