device found = /dev/cu.usbmodem14433
ch0 : [2471, 2493, 2539, 2499, 2463, 2545, 2533, 2281, 2445, 2491]
ch1 : [3192, 3192, 3190, 3192, 3192, 3192, 3191, 3196, 3192, 3192]
ch2 : [1119, 1119, 1111, 1095, 1109, 1111, 1092, 1091, 1116, 1119]
ch3 : [2949, 2956, 2947, 2949, 2946, 2949, 2945, 2949, 2949, 2949]
ch0 : [2485, 2508, 2465, 2440, 2547, 2514, 2337, 2465, 2503, 2539]
ch1 : [3196, 3191, 3194, 3192, 3192, 3187, 3197, 3192, 3192, 3190]
ch2 : [1116, 1114, 1096, 1111, 1097, 1085, 1117, 1120, 1119, 1111]
ch3 : [2949, 2947, 2946, 2948, 2952, 2944, 2951, 2949, 2952, 2945]
ch0 : [2489, 2461, 2546, 2539, 2295, 2447, 2489, 2479, 2492, 2476]
ch1 : [3191, 3192, 3191, 3192, 3195, 3188, 3191, 3190, 3195, 3192]
ch2 : [1113, 1111, 1115, 1096, 1106, 1113, 1122, 1120, 1099, 1112]
ch3 : [2946, 2946, 2947, 2948, 2946, 2948, 2950, 2946, 2948, 2949]
ch0 : [2441, 2551, 2508, 2320, 2457, 2496, 2535, 2521, 2458, 2539]
ch1 : [3192, 3192, 3192, 3195, 3199, 3191, 3193, 3194, 3191, 3191]
ch2 : [1117, 1097, 1085, 1115, 1127, 1126, 1115, 1112, 1112, 1119]
ch3 : [2948, 2947, 2945, 2948, 2943, 2953, 2943, 2947, 2949, 2949]
ch0 : [2543, 2263, 2443, 2504, 2481, 2512, 2487, 2453, 2548, 2455]
ch1 : [3191, 3192, 3193, 3196, 3193, 3192, 3196, 3193, 3192, 3193]
ch2 : [1094, 1099, 1120, 1122, 1121, 1113, 1113, 1113, 1100, 1074]
ch3 : [2951, 2952, 2952, 2945, 2951, 2946, 2949, 2950, 2948, 2948]
ch0 : [2314, 2460, 2494, 2526, 2498, 2458, 2495, 2549, 2341, 2435]
ch1 : [3193, 3193, 3188, 3192, 3194, 3193, 3194, 3189, 3193, 3191]
ch2 : [1119, 1121, 1122, 1115, 1116, 1112, 1115, 1095, 1096, 1119]
ch3 : [2953, 2950, 2952, 2948, 2937, 2947, 2950, 2952, 2943, 2948]
ch0 : [2485, 2487, 2501, 2474, 2446, 2551, 2522, 2285, 2435, 2491]
ch1 : [3193, 3192, 3192, 3191, 3193, 3190, 3190, 3193, 3192, 3191]
ch2 : [1124, 1121, 1116, 1116, 1103, 1104, 1083, 1112, 1121, 1124]
ch3 : [2951, 2955, 2949, 2947, 2952, 2948, 2943, 2948, 2951, 2950]
ch0 : [2553, 2504, 2457, 2470, 2550, 2384, 2425, 2488, 2502, 2515]
ch1 : [3189, 3189, 3195, 3192, 3193, 3184, 3195, 3193, 3186, 3191]
ch2 : [1114, 1111, 1116, 1113, 1103, 1095, 1117, 1117, 1123, 1115]
ch3 : [2951, 2943, 2948, 2949, 2945, 2949, 2950, 2952, 2950, 2943]
ch0 : [2468, 2464, 2550, 2461, 2289, 2462, 2494, 2538, 2494, 2458]
ch1 : [3192, 3193, 3194, 3196, 3196, 3193, 3192, 3190, 3195, 3193]
ch2 : [1113, 1111, 1106, 1086, 1109, 1122, 1121, 1116, 1111, 1113]
ch3 : [2950, 2960, 2948, 2946, 2949, 2956, 2950, 2953, 2951, 2950]
ch0 : [2451, 2542, 2454, 2420, 2492, 2485, 2505, 2484, 2471, 2547]
ch1 : [3194, 3200, 3194, 3190, 3192, 3193, 3193, 3196, 3194, 3189]
ch2 : [1115, 1102, 1097, 1117, 1121, 1120, 1117, 1115, 1115, 1110]
ch3 : [2950, 2948, 2938, 2947, 2949, 2951, 2947, 2948, 2948, 2950]
ch0 : [2401, 2496, 2472, 2505, 2489, 2478, 2546, 2461, 2246, 2440]
ch1 : [3178, 3194, 3191, 3192, 3196, 3197, 3195, 3193, 3197, 3185]
ch2 : [1118, 1126, 1120, 1120, 1115, 1116, 1111, 1092, 1124, 1125]
ch3 : [2937, 2945, 2949, 2957, 2949, 2952, 2952, 2946, 2949, 2946]
ch0 : [2489, 2502, 2513, 2469, 2465, 2546, 2479, 2414, 2486, 2496]
ch1 : [3195, 3191, 3188, 3196, 3193, 3201, 3191, 3193, 3194, 3194]
ch2 : [1123, 1113, 1114, 1116, 1116, 1097, 1096, 1115, 1123, 1122]
ch3 : [2950, 2949, 2947, 2948, 2947, 2946, 2949, 2952, 2949, 2950]
ch0 : [2501, 2492, 2465, 2549, 2527, 2237, 2439, 2501, 2495, 2534]
ch1 : [3191, 3192, 3191, 3192, 3189, 3196, 3192, 3193, 3189, 3192]
ch2 : [1120, 1112, 1115, 1115, 1095, 1109, 1125, 1125, 1120, 1119]
ch3 : [2946, 2944, 2947, 2952, 2944, 2943, 2949, 2952, 2950, 2948]
ch0 : [2461, 2472, 2551, 2531, 2392, 2486, 2487, 2516, 2486, 2453]
ch1 : [3191, 3196, 3185, 3192, 3195, 3195, 3193, 3200, 3189, 3188]
ch2 : [1112, 1119, 1099, 1098, 1118, 1124, 1130, 1124, 1118, 1116]
ch3 : [2950, 2952, 2943, 2947, 2941, 2950, 2948, 2949, 2950, 2950]
ch0 : [2549, 2502, 2212, 2441, 2493, 2490, 2530, 2478, 2466, 2567]
ch1 : [3190, 3192, 3195, 3195, 3192, 3192, 3191, 3192, 3187, 3191]
ch2 : [1117, 1096, 1109, 1127, 1124, 1114, 1118, 1110, 1116, 1103]
ch3 : [2947, 2947, 2947, 2948, 2947, 2950, 2943, 2946, 2947, 2949]
ch0 : [2513, 2398, 2483, 2506, 2511, 2511, 2448, 2544, 2491, 2182]
ch1 : [3190, 3196, 3187, 3196, 3191, 3194, 3196, 3200, 3188, 3200]
ch2 : [1090, 1114, 1123, 1123, 1120, 1113, 1115, 1121, 1093, 1104]
ch3 : [2947, 2949, 2948, 2945, 2943, 2942, 2949, 2949, 2948, 2954]
ch0 : [2409, 2483, 2493, 2543, 2441, 2453, 2529, 2524, 2368, 2478]
ch1 : [3191, 3189, 3180, 3192, 3195, 3192, 3195, 3193, 3193, 3195]
ch2 : [1128, 1123, 1119, 1114, 1113, 1114, 1103, 1095, 1117, 1129]
ch3 : [2950, 2949, 2949, 2948, 2944, 2943, 2942, 2949, 2949, 2953]
ch0 : [2487, 2506, 2485, 2448, 2446, 2502, 2198, 2419, 2482, 2511]
ch1 : [3196, 3194, 3195, 3193, 3200, 3193, 3193, 3187, 3192, 3193]
ch2 : [1124, 1119, 1118, 1117, 1120, 1095, 1101, 1118, 1123, 1118]
ch3 : [2952, 2948, 2943, 2946, 2947, 2947, 2945, 2942, 2950, 2950]
ch0 : [2513, 2467, 2462, 2539, 2531, 2374, 2474, 2478, 2513, 2501]
ch1 : [3190, 3185, 3193, 3190, 3194, 3187, 3195, 3192, 3193, 3193]
ch2 : [1112, 1111, 1115, 1097, 1096, 1114, 1121, 1122, 1118, 1113]
ch3 : [2945, 2948, 2948, 2945, 2948, 2953, 2950, 2950, 2947, 2943]
ch0 : [2441, 2427, 2522, 2219, 2408, 2495, 2498, 2535, 2461, 2492]
ch1 : [3193, 3191, 3191, 3196, 3190, 3196, 3193, 3196, 3193, 3193]
ch2 : [1112, 1114, 1093, 1100, 1120, 1122, 1118, 1113, 1109, 1114]
ch3 : [2946, 2952, 2957, 2942, 2949, 2958, 2952, 2943, 2943, 2948]
ch0 : [2298, 2389, 2472, 2500, 2535, 2477, 2481, 2550, 2496, 2353]
ch1 : [3203, 3195, 3194, 3192, 3192, 3195, 3190, 3194, 3194, 3196]
ch2 : [1091, 1118, 1122, 1121, 1103, 1110, 1110, 1103, 1094, 1110]
ch3 : [2943, 2942, 2953, 2951, 2947, 2945, 2942, 2948, 2949, 2953]
ch0 : [2473, 2490, 2511, 2502, 2444, 2431, 2552, 2353, 2393, 2484]
ch1 : [3191, 3194, 3193, 3192, 3182, 3194, 3193, 3197, 3193, 3192]
ch2 : [1108, 1115, 1118, 1116, 1111, 1111, 1090, 1088, 1116, 1119]
ch3 : [2952, 2953, 2948, 2947, 2949, 2949, 2947, 2942, 2950, 2950]
ch0 : [2508, 2541, 2456, 2481, 2551, 2515, 2333, 2472, 2491, 2515]
ch1 : [3179, 3189, 3194, 3194, 3191, 3189, 3193, 3192, 3192, 3193]
ch2 : [1119, 1107, 1106, 1107, 1103, 1088, 1104, 1115, 1115, 1110]
ch3 : [2963, 2947, 2947, 2947, 2949, 2946, 2952, 2950, 2949, 2950]
ch0 : [2496, 2458, 2431, 2552, 2469, 2394, 2489, 2500, 2542, 2497]
ch1 : [3192, 3193, 3191, 3193, 3196, 3197, 3194, 3193, 3193, 3190]
ch2 : [1111, 1104, 1124, 1086, 1088, 1116, 1119, 1114, 1111, 1107]
ch3 : [2950, 2950, 2947, 2948, 2948, 2952, 2950, 2953, 2947, 2949]
ch0 : [2487, 2547, 2553, 2337, 2460, 2498, 2499, 2505, 2482, 2455]
ch1 : [3193, 3192, 3191, 3193, 3192, 3195, 3186, 3177, 3204, 3194]
ch2 : [1110, 1109, 1093, 1100, 1116, 1117, 1118, 1111, 1115, 1106]
ch3 : [2948, 2952, 2951, 2947, 2951, 2949, 2942, 2948, 2950, 2946]
ch0 : [2535, 2535, 2374, 2480, 2505, 2544, 2485, 2473, 2552, 2549]
ch1 : [3193, 3190, 3193, 3196, 3199, 3195, 3193, 3192, 3190, 3190]
ch2 : [1088, 1087, 1112, 1119, 1115, 1110, 1106, 1104, 1108, 1088]
ch3 : [2949, 2949, 2950, 2952, 2952, 2946, 2947, 2950, 2950, 2944]
ch0 : [2479, 2507, 2543, 2505, 2485, 2553, 2554, 2304, 2461, 2505]
ch1 : [3189, 3193, 3193, 3191, 3191, 3191, 3190, 3195, 3192, 3187]
ch2 : [1115, 1113, 1106, 1107, 1110, 1102, 1088, 1096, 1113, 1111]
ch3 : [2948, 2951, 2950, 2949, 2950, 2952, 2950, 2952, 2951, 2952]
ch0 : [2491, 2519, 2478, 2457, 2558, 2494, 2362, 2476, 2516, 2549]
ch1 : [3194, 3201, 3193, 3190, 3191, 3188, 3191, 3195, 3189, 3191]
ch2 : [1110, 1108, 1111, 1104, 1096, 1082, 1108, 1114, 1117, 1108]
ch3 : [2951, 2952, 2950, 2950, 2948, 2949, 2961, 2941, 2955, 2960]
ch0 : [2503, 2490, 2554, 2555, 2305, 2466, 2509, 2495, 2521, 2487]
ch1 : [3191, 3195, 3194, 3188, 3194, 3191, 3187, 3196, 3187, 3197]
ch2 : [1103, 1102, 1106, 1082, 1095, 1102, 1110, 1111, 1122, 1106]
ch3 : [2950, 2949, 2942, 2950, 2945, 2952, 2956, 2954, 2953, 2950]
ch0 : [2453, 2553, 2482, 2330, 2477, 2505, 2549, 2519, 2478, 2548]
ch1 : [3191, 3193, 3198, 3195, 3192, 3191, 3187, 3192, 3197, 3190]
ch2 : [1111, 1091, 1085, 1110, 1119, 1107, 1109, 1107, 1108, 1106]
ch3 : [2950, 2949, 2948, 2950, 2951, 2952, 2954, 2948, 2949, 2955]
ch0 : [2548, 2291, 2451, 2500, 2495, 2515, 2477, 2455, 2565, 2438]
ch1 : [3192, 3191, 3193, 3193, 3191, 3189, 3193, 3196, 3193, 3192]
ch2 : [1088, 1093, 1113, 1112, 1114, 1111, 1105, 1104, 1090, 1082]
ch3 : [2954, 2950, 2949, 2952, 2951, 2950, 2950, 2952, 2952, 2948]
ch0 : [2328, 2476, 2504, 2549, 2484, 2479, 2509, 2552, 2332, 2450]
ch1 : [3193, 3187, 3203, 3191, 3201, 3191, 3195, 3186, 3194, 3185]
ch2 : [1108, 1117, 1112, 1106, 1105, 1105, 1106, 1086, 1074, 1110]
ch3 : [2945, 2955, 2951, 2954, 2953, 2951, 2952, 2953, 2953, 2957]
ch0 : [2500, 2502, 2517, 2483, 2467, 2557, 2523, 2317, 2478, 2497]
ch1 : [3196, 3194, 3191, 3195, 3192, 3191, 3191, 3192, 3191, 3187]
ch2 : [1114, 1114, 1107, 1106, 1104, 1094, 1084, 1104, 1117, 1117]
ch3 : [2956, 2956, 2952, 2947, 2951, 2951, 2949, 2950, 2952, 2951]
ch0 : [2491, 2492, 2558, 2468, 2301, 2475, 2510, 2549, 2515, 2485]
ch1 : [3191, 3189, 3191, 3191, 3196, 3191, 3190, 3193, 3193, 3190]
ch2 : [1104, 1110, 1094, 1079, 1086, 1119, 1113, 1108, 1104, 1104]
ch3 : [2953, 2951, 2948, 2947, 2943, 2954, 2950, 2953, 2950, 2950]
ch0 : [2482, 2574, 2445, 2436, 2508, 2483, 2517, 2499, 2501, 2556]
ch1 : [3193, 3193, 3190, 3197, 3191, 3194, 3190, 3183, 3191, 3187]
ch2 : [1107, 1091, 1089, 1109, 1111, 1110, 1111, 1106, 1109, 1096]
ch3 : [2952, 2953, 2943, 2955, 2949, 2950, 2951, 2949, 2952, 2956]
ch0 : [2527, 2290, 2452, 2504, 2542, 2526, 2480, 2469, 2546, 2471]
ch1 : [3192, 3192, 3197, 3193, 3190, 3192, 3191, 3194, 3191, 3192]
ch2 : [1085, 1104, 1117, 1113, 1110, 1106, 1117, 1105, 1096, 1088]
ch3 : [2945, 2951, 2953, 2956, 2956, 2953, 2949, 2947, 2951, 2950]
ch0 : [2432, 2502, 2495, 2519, 2485, 2477, 2560, 2513, 2253, 2460]
ch1 : [3193, 3191, 3188, 3188, 3196, 3190, 3191, 3191, 3193, 3200]
ch2 : [1112, 1119, 1116, 1122, 1110, 1107, 1102, 1080, 1097, 1118]
ch3 : [2953, 2954, 2956, 2952, 2949, 2951, 2951, 2950, 2946, 2942]
ch0 : [2494, 2512, 2521, 2489, 2464, 2545, 2513, 2416, 2493, 2497]
ch1 : [3191, 3191, 3193, 3192, 3195, 3191, 3193, 3192, 3193, 3191]
ch2 : [1110, 1111, 1106, 1106, 1106, 1095, 1090, 1110, 1119, 1112]
ch3 : [2954, 2951, 2945, 2952, 2952, 2949, 2952, 2947, 2952, 2955]
ch0 : [2508, 2503, 2487, 2556, 2557, 2240, 2455, 2493, 2503, 2532]
ch1 : [3187, 3194, 3191, 3187, 3190, 3195, 3192, 3191, 3188, 3189]
ch2 : [1114, 1113, 1113, 1107, 1085, 1101, 1118, 1113, 1113, 1106]
ch3 : [2953, 2950, 2950, 2951, 2947, 2949, 2960, 2952, 2955, 2949]
ch0 : [2479, 2476, 2554, 2521, 2415, 2498, 2498, 2522, 2517, 2480]
ch1 : [3191, 3193, 3192, 3193, 3192, 3193, 3195, 3190, 3195, 3193]
ch2 : [1108, 1108, 1093, 1088, 1114, 1116, 1116, 1114, 1111, 1113]
ch3 : [2950, 2950, 2949, 2949, 2950, 2960, 2949, 2951, 2952, 2946]
ch0 : [2555, 2546, 2222, 2450, 2498, 2506, 2534, 2484, 2476, 2556]
ch1 : [3189, 3188, 3194, 3193, 3191, 3195, 3190, 3195, 3195, 3193]
ch2 : [1110, 1091, 1099, 1119, 1114, 1098, 1110, 1106, 1109, 1095]
ch3 : [2947, 2947, 2948, 2950, 2956, 2950, 2948, 2947, 2950, 2948]
ch0 : [2517, 2389, 2479, 2504, 2517, 2504, 2483, 2546, 2506, 2196]
ch1 : [3181, 3192, 3194, 3195, 3196, 3187, 3192, 3190, 3195, 3197]
ch2 : [1093, 1110, 1119, 1114, 1113, 1108, 1110, 1109, 1087, 1096]
ch3 : [2945, 2940, 2948, 2950, 2952, 2953, 2948, 2951, 2948, 2952]
ch0 : [2424, 2493, 2513, 2531, 2473, 2481, 2556, 2525, 2390, 2493]
ch1 : [3194, 3193, 3193, 3191, 3193, 3192, 3187, 3192, 3193, 3187]
ch2 : [1114, 1117, 1115, 1107, 1101, 1107, 1093, 1086, 1111, 1115]
ch3 : [2949, 2952, 2953, 2947, 2957, 2951, 2946, 2949, 2952, 2955]
ch0 : [2509, 2533, 2507, 2459, 2467, 2553, 2223, 2430, 2501, 2499]
ch1 : [3195, 3192, 3192, 3197, 3190, 3190, 3193, 3185, 3194, 3197]
ch2 : [1120, 1114, 1109, 1111, 1110, 1089, 1096, 1118, 1119, 1114]
ch3 : [2951, 2953, 2948, 2949, 2955, 2949, 2946, 2953, 2951, 2952]
ch0 : [2548, 2479, 2482, 2556, 2533, 2374, 2496, 2494, 2520, 2512]
ch1 : [3192, 3210, 3196, 3189, 3185, 3192, 3195, 3188, 3187, 3191]
ch2 : [1112, 1109, 1109, 1101, 1092, 1110, 1118, 1119, 1114, 1116]
ch3 : [2950, 2942, 2947, 2955, 2961, 2953, 2952, 2943, 2937, 2949]
ch0 : [2471, 2433, 2557, 2206, 2416, 2487, 2512, 2542, 2470, 2483]
ch1 : [3193, 3193, 3191, 3195, 3192, 3193, 3197, 3193, 3196, 3192]
ch2 : [1115, 1112, 1081, 1088, 1117, 1119, 1113, 1109, 1106, 1108]
ch3 : [2936, 2958, 2950, 2943, 2953, 2952, 2952, 2948, 2942, 2947]
ch0 : [2560, 2536, 2371, 2475, 2507, 2525, 2508, 2467, 2443, 2556]
ch1 : [3192, 3191, 3194, 3192, 3191, 3191, 3194, 3196, 3197, 3196]
ch2 : [1098, 1087, 1107, 1112, 1120, 1112, 1110, 1110, 1110, 1090]
ch3 : [2951, 2946, 2950, 2950, 2951, 2950, 2943, 2950, 2952, 2946]
ch0 : [2312, 2415, 2486, 2517, 2550, 2489, 2487, 2557, 2545, 2350]
ch1 : [3191, 3192, 3187, 3193, 3189, 3193, 3191, 3191, 3194, 3206]
ch2 : [1088, 1117, 1118, 1114, 1109, 1104, 1111, 1100, 1088, 1109]
ch3 : [2943, 2954, 2951, 2947, 2950, 2947, 2947, 2950, 2950, 2950]
ch0 : [2474, 2508, 2519, 2520, 2470, 2443, 2534, 2373, 2396, 2493]
ch1 : [3193, 3191, 3194, 3191, 3195, 3193, 3194, 3193, 3196, 3193]
ch2 : [1120, 1114, 1115, 1109, 1110, 1109, 1090, 1087, 1117, 1118]
ch3 : [2951, 2950, 2951, 2946, 2949, 2949, 2949, 2944, 2950, 2951]
ch0 : [2504, 2549, 2491, 2502, 2559, 2523, 2346, 2478, 2505, 2509]
ch1 : [3193, 3191, 3194, 3193, 3190, 3191, 3194, 3191, 3193, 3196]
ch2 : [1117, 1108, 1114, 1116, 1102, 1091, 1102, 1119, 1109, 1114]
ch3 : [2953, 2950, 2942, 2951, 2948, 2943, 2946, 2950, 2951, 2946]
ch0 : [2523, 2467, 2449, 2554, 2465, 2399, 2495, 2511, 2549, 2479]
ch1 : [3192, 3196, 3193, 3188, 3191, 3191, 3196, 3189, 3191, 3196]
ch2 : [1112, 1111, 1109, 1088, 1088, 1111, 1120, 1117, 1109, 1105]
ch3 : [2950, 2951, 2947, 2943, 2948, 2948, 2952, 2952, 2947, 2948]
ch0 : [2490, 2558, 2522, 2331, 2469, 2501, 2501, 2525, 2479, 2436]
ch1 : [3195, 3196, 3191, 3201, 3193, 3191, 3202, 3186, 3187, 3187]
ch2 : [1104, 1106, 1094, 1116, 1114, 1115, 1114, 1108, 1104, 1110]
ch3 : [2949, 2956, 2948, 2953, 2950, 2946, 2953, 2951, 2948, 2963]
ch0 : [2555, 2470, 2384, 2487, 2509, 2548, 2506, 2487, 2556, 2554]
ch1 : [3179, 3191, 3193, 3205, 3193, 3190, 3195, 3193, 3203, 3186]
ch2 : [1092, 1085, 1114, 1120, 1114, 1108, 1115, 1107, 1106, 1097]
ch3 : [2948, 2945, 2947, 2950, 2952, 2948, 2950, 2943, 2951, 2952]
ch0 : [2314, 2471, 2508, 2493, 2512, 2477, 2455, 2557, 2517, 2366]
ch1 : [3194, 3195, 3188, 3194, 3196, 3196, 3197, 3193, 3193, 3205]
ch2 : [1100, 1114, 1116, 1114, 1112, 1109, 1109, 1092, 1084, 1113]
ch3 : [2961, 2951, 2947, 2943, 2951, 2944, 2949, 2947, 2950, 2949]
ch0 : [2488, 2521, 2550, 2498, 2487, 2550, 2542, 2307, 2455, 2498]
ch1 : [3205, 3190, 3195, 3194, 3193, 3190, 3188, 3196, 3190, 3196]
ch2 : [1121, 1113, 1105, 1092, 1122, 1098, 1090, 1097, 1120, 1114]
ch3 : [2950, 2951, 2943, 2949, 2945, 2950, 2948, 2948, 2953, 2952]
ch0 : [2488, 2526, 2467, 2463, 2553, 2499, 2362, 2479, 2485, 2546]
ch1 : [3195, 3194, 3196, 3196, 3181, 3192, 3196, 3193, 3193, 3195]
ch2 : [1114, 1112, 1118, 1111, 1100, 1086, 1115, 1119, 1118, 1110]
ch3 : [2949, 2949, 2948, 2949, 2946, 2945, 2957, 2952, 2952, 2950]
ch0 : [2482, 2479, 2552, 2540, 2277, 2450, 2511, 2487, 2504, 2507]
ch1 : [3192, 3197, 3191, 3191, 3195, 3194, 3187, 3196, 3192, 3194]
ch2 : [1108, 1110, 1108, 1080, 1098, 1119, 1118, 1120, 1111, 1108]
ch3 : [2944, 2948, 2943, 2949, 2946, 2964, 2960, 2938, 2951, 2946]
ch0 : [2484, 2559, 2511, 2343, 2468, 2484, 2547, 2484, 2473, 2548]
ch1 : [3195, 3191, 3183, 3197, 3193, 3183, 3190, 3200, 3190, 3191]
ch2 : [1109, 1096, 1087, 1113, 1120, 1113, 1116, 1105, 1109, 1110]
ch3 : [2947, 2952, 2943, 2946, 2945, 2944, 2937, 2944, 2939, 2942]
ch0 : [2553, 2307, 2446, 2513, 2481, 2503, 2445, 2450, 2555, 2510]
ch1 : [3191, 3192, 3191, 3190, 3190, 3194, 3193, 3193, 3194, 3190]
ch2 : [1090, 1098, 1115, 1116, 1112, 1111, 1118, 1104, 1096, 1087]
ch3 : [2940, 2940, 2944, 2941, 2938, 2940, 2940, 2942, 2942, 2942]
ch0 : [2338, 2486, 2516, 2548, 2475, 2463, 2492, 2560, 2429, 2465]
ch1 : [3190, 3189, 3190, 3193, 3194, 3193, 3196, 3193, 3200, 3192]
ch2 : [1109, 1113, 1119, 1100, 1102, 1108, 1110, 1093, 1094, 1114]
ch3 : [2943, 2946, 2945, 2947, 2943, 2947, 2946, 2941, 2949, 2948]
ch0 : [2557, 2561, 2558, 2504, 2570, 2437, 2388, 2462, 2473, 2546]
ch1 : [3197, 3189, 3193, 3198, 3196, 3193, 3196, 3193, 3196, 3193]
ch2 : [1112, 1109, 1098, 1109, 1092, 1092, 1114, 1117, 1115, 1113]
ch3 : [2939, 2930, 2936, 2935, 2932, 2931, 2932, 2929, 2932, 2925]
ch0 : [2538, 2522, 2561, 2568, 2254, 2445, 2514, 2552, 2529, 2492]
ch1 : [3189, 3189, 3195, 3190, 3195, 3177, 3191, 3187, 3205, 3190]
ch2 : [1110, 1111, 1099, 1086, 1107, 1115, 1121, 1110, 1107, 1112]
ch3 : [2928, 2925, 2932, 2931, 2926, 2926, 2934, 2939, 2927, 2932]
ch0 : [2452, 2552, 2479, 2503, 2537, 2526, 2519, 2566, 2532, 2569]
ch1 : [3192, 3191, 3195, 3188, 3190, 3189, 3189, 3195, 3193, 3180]
ch2 : [1105, 1092, 1088, 1112, 1116, 1112, 1114, 1108, 1107, 1103]
ch3 : [2918, 2915, 2930, 2937, 2926, 2929, 2932, 2932, 2936, 2936]
ch0 : [2467, 2286, 2446, 2549, 2467, 2465, 2443, 2456, 2565, 2560]
ch1 : [3189, 3193, 3198, 3192, 3196, 3195, 3197, 3198, 3193, 3193]
ch2 : [1083, 1103, 1117, 1117, 1112, 1105, 1107, 1110, 1092, 1085]
ch3 : [2931, 2924, 2929, 2925, 2937, 2937, 2933, 2926, 2920, 2926]
ch0 : [2507, 2550, 2414, 2403, 2479, 2492, 2534, 2494, 2237, 2506]
ch1 : [3185, 3192, 3190, 3191, 3195, 3183, 3190, 3203, 3196, 3193]
ch2 : [1110, 1124, 1113, 1112, 1110, 1112, 1105, 1092, 1103, 1120]
ch3 : [2936, 2941, 2932, 2929, 2931, 2925, 2931, 2937, 2930, 2931]
ch0 : [2524, 2556, 2557, 2566, 2395, 2469, 2490, 2398, 2535, 2551]
ch1 : [3191, 3191, 3192, 3193, 3192, 3192, 3187, 3195, 3190, 3197]
ch2 : [1115, 1112, 1109, 1113, 1097, 1097, 1092, 1116, 1126, 1119]
ch3 : [2930, 2932, 2932, 2931, 2922, 2928, 2939, 2938, 2940, 2932]
ch0 : [2547, 2533, 2522, 2560, 2548, 2314, 2553, 2559, 2478, 2492]
ch1 : [3191, 3191, 3191, 3189, 3193, 3196, 3187, 3193, 3187, 3195]
ch2 : [1116, 1111, 1116, 1113, 1088, 1111, 1126, 1123, 1117, 1112]
ch3 : [2927, 2918, 2912, 2921, 2922, 2922, 2928, 2933, 2937, 2924]
ch0 : [2478, 2564, 2588, 2591, 2374, 2442, 2479, 2494, 2556, 2565]
ch1 : [3189, 3194, 3187, 3191, 3191, 3193, 3194, 3193, 3195, 3201]
ch2 : [1112, 1117, 1096, 1096, 1115, 1122, 1121, 1118, 1118, 1116]
ch3 : [2922, 2911, 2911, 2916, 2928, 2931, 2922, 2920, 2916, 2922]
ch0 : [2583, 2589, 2228, 2454, 2387, 2373, 2494, 2551, 2577, 2585]
ch1 : [3192, 3189, 3194, 3194, 3189, 3186, 3191, 3194, 3201, 3190]
ch2 : [1118, 1091, 1108, 1127, 1124, 1118, 1096, 1115, 1116, 1101]
ch3 : [2913, 2909, 2907, 2901, 2913, 2915, 2918, 2913, 2904, 2900]
ch0 : [2444, 2379, 2574, 2577, 2386, 2390, 2444, 2565, 2567, 2284]
ch1 : [3195, 3192, 3192, 3191, 3193, 3193, 3195, 3190, 3190, 3191]
ch2 : [1092, 1110, 1117, 1119, 1119, 1114, 1115, 1117, 1090, 1105]
ch3 : [2904, 2907, 2912, 2908, 2902, 2904, 2909, 2912, 2908, 2903]
ch0 : [2476, 2564, 2576, 2575, 2296, 2094, 2556, 2561, 2524, 2568]
ch1 : [3191, 3194, 3192, 3189, 3196, 3199, 3188, 3194, 3193, 3196]
ch2 : [1128, 1123, 1119, 1113, 1110, 1107, 1111, 1098, 1117, 1124]
ch3 : [2905, 2906, 2899, 2891, 2891, 2895, 2894, 2894, 2908, 2894]
ch0 : [2579, 2520, 2122, 2295, 2544, 2563, 2298, 2251, 2425, 2520]
ch1 : [3195, 3191, 3196, 3189, 3193, 3196, 3192, 3196, 3193, 3193]
ch2 : [1125, 1124, 1120, 1115, 1115, 1098, 1109, 1127, 1127, 1124]
ch3 : [2886, 2890, 2891, 2889, 2884, 2876, 2877, 2882, 2888, 2885]
ch0 : [2556, 2460, 2397, 2558, 2392, 2391, 2558, 2551, 2302, 2320]
ch1 : [3190, 3193, 3194, 3193, 3200, 3192, 3190, 3187, 3193, 3193]
ch2 : [1129, 1116, 1117, 1107, 1098, 1117, 1130, 1123, 1120, 1114]
ch3 : [2884, 2880, 2880, 2879, 2880, 2872, 2876, 2881, 2877, 2876]
ch0 : [2479, 2507, 2564, 2139, 2397, 2543, 2554, 2436, 2372, 2391]
ch1 : [3193, 3189, 3202, 3196, 3191, 3192, 3191, 3190, 3189, 3188]
ch2 : [1120, 1125, 1099, 1098, 1127, 1132, 1117, 1120, 1115, 1120]
ch3 : [2877, 2872, 2868, 2867, 2867, 2860, 2875, 2870, 2865, 2866]
ch0 : [2541, 2446, 2378, 2486, 2457, 2469, 2439, 2409, 2380, 2531]
ch1 : [3194, 3183, 3183, 3192, 3187, 3195, 3200, 3190, 3191, 3191]
ch2 : [1108, 1101, 1120, 1129, 1128, 1129, 1129, 1120, 1124, 1102]
ch3 : [2865, 2861, 2865, 2867, 2859, 2859, 2858, 2856, 2854, 2852]
ch0 : [2242, 2361, 2442, 2414, 2506, 2436, 2479, 2531, 2339, 2329]
ch1 : [3196, 3187, 3197, 3192, 3192, 3197, 3195, 3192, 3194, 3192]
ch2 : [1105, 1132, 1121, 1129, 1128, 1120, 1127, 1116, 1108, 1121]
ch3 : [2847, 2856, 2849, 2847, 2849, 2848, 2841, 2835, 2830, 2830]
ch0 : [2339, 2496, 2510, 2464, 2395, 2368, 2521, 2363, 2321, 2434]
ch1 : [3192, 3189, 3192, 3198, 3187, 3195, 3191, 3192, 3196, 3189]
ch2 : [1131, 1131, 1123, 1128, 1118, 1126, 1105, 1109, 1131, 1130]
ch3 : [2839, 2841, 2838, 2829, 2824, 2819, 2828, 2839, 2835, 2836]
ch0 : [2397, 2498, 2517, 2496, 2480, 2416, 2304, 2478, 2466, 2447]
ch1 : [3191, 3192, 3180, 3193, 3190, 3202, 3197, 3190, 3187, 3187]
ch2 : [1124, 1123, 1127, 1122, 1119, 1103, 1117, 1123, 1128, 1126]
ch3 : [2828, 2826, 2823, 2826, 2833, 2837, 2840, 2841, 2833, 2837]
ch0 : [2347, 2392, 2367, 2508, 2397, 2311, 2404, 2443, 2489, 2399]
ch1 : [3193, 3184, 3189, 3194, 3195, 3187, 3195, 3193, 3192, 3191]
ch2 : [1121, 1126, 1123, 1103, 1097, 1126, 1131, 1126, 1119, 1121]
ch3 : [2832, 2836, 2833, 2828, 2829, 2833, 2828, 2828, 2824, 2823]
ch0 : [2411, 2504, 2446, 2251, 2396, 2447, 2390, 2383, 2386, 2379]
ch1 : [3192, 3191, 3200, 3197, 3193, 3187, 3191, 3188, 3195, 3195]
ch2 : [1119, 1113, 1103, 1110, 1128, 1125, 1127, 1116, 1118, 1119]
ch3 : [2825, 2826, 2821, 2808, 2823, 2819, 2818, 2818, 2815, 2817]
ch0 : [2225, 2325, 2420, 2420, 2452, 2394, 2352, 2475, 2411, 2291]
ch1 : [3192, 3190, 3192, 3193, 3188, 3194, 3192, 3193, 3194, 3196]
ch2 : [1104, 1124, 1122, 1112, 1116, 1113, 1111, 1098, 1095, 1116]
ch3 : [2809, 2810, 2805, 2812, 2808, 2804, 2809, 2808, 2806, 2808]
ch0 : [2403, 2423, 2486, 2404, 2397, 2495, 2492, 2233, 2367, 2430]
ch1 : [3191, 3191, 3194, 3191, 3187, 3193, 3196, 3191, 3200, 3193]
ch2 : [1117, 1118, 1112, 1106, 1111, 1113, 1094, 1108, 1115, 1120]
ch3 : [2808, 2808, 2804, 2804, 2804, 2808, 2804, 2811, 2811, 2811]
ch0 : [2427, 2429, 2365, 2357, 2488, 2449, 2262, 2378, 2406, 2470]
ch1 : [3191, 3194, 3194, 3195, 3194, 3193, 3196, 3198, 3197, 3187]
ch2 : [1119, 1117, 1112, 1111, 1098, 1093, 1123, 1125, 1122, 1116]
ch3 : [2806, 2808, 2803, 2810, 2810, 2809, 2810, 2815, 2814, 2815]
ch0 : [2432, 2405, 2487, 2503, 2226, 2365, 2416, 2405, 2430, 2392]
ch1 : [3189, 3192, 3198, 3192, 3198, 3193, 3196, 3193, 3192, 3191]
ch2 : [1112, 1113, 1115, 1096, 1100, 1133, 1122, 1119, 1113, 1119]
ch3 : [2814, 2815, 2817, 2818, 2818, 2824, 2816, 2819, 2820, 2819]
ch0 : [2387, 2492, 2472, 2246, 2399, 2440, 2492, 2429, 2390, 2467]
ch1 : [3196, 3195, 3187, 3195, 3193, 3189, 3196, 3192, 3192, 3191]
ch2 : [1119, 1102, 1101, 1117, 1125, 1124, 1117, 1112, 1109, 1121]
ch3 : [2823, 2832, 2823, 2832, 2827, 2827, 2826, 2824, 2828, 2827]
ch0 : [2495, 2244, 2383, 2431, 2431, 2466, 2421, 2406, 2508, 2464]
ch1 : [3187, 3194, 3195, 3183, 3190, 3194, 3193, 3196, 3193, 3193]
ch2 : [1097, 1097, 1121, 1122, 1116, 1115, 1114, 1115, 1103, 1087]
ch3 : [2828, 2828, 2836, 2833, 2834, 2833, 2831, 2834, 2831, 2828]
ch0 : [2270, 2421, 2441, 2497, 2473, 2441, 2478, 2495, 2351, 2400]
ch1 : [3190, 3187, 3192, 3190, 3191, 3191, 3192, 3192, 3191, 3195]
ch2 : [1113, 1124, 1120, 1118, 1117, 1116, 1116, 1099, 1097, 1117]
ch3 : [2835, 2842, 2835, 2841, 2835, 2838, 2840, 2840, 2839, 2844]
ch0 : [2443, 2448, 2480, 2440, 2443, 2520, 2525, 2273, 2431, 2453]
ch1 : [3194, 3203, 3182, 3190, 3191, 3194, 3190, 3196, 3196, 3196]
ch2 : [1121, 1120, 1110, 1114, 1113, 1100, 1085, 1121, 1121, 1118]
ch3 : [2849, 2846, 2844, 2845, 2840, 2845, 2845, 2848, 2847, 2848]
ch0 : [2513, 2483, 2431, 2438, 2526, 2429, 2393, 2500, 2443, 2450]
ch1 : [3193, 3194, 3190, 3193, 3188, 3193, 3192, 3196, 3191, 3192]
ch2 : [1115, 1111, 1107, 1109, 1090, 1088, 1107, 1115, 1109, 1112]
ch3 : [2850, 2844, 2847, 2849, 2848, 2850, 2852, 2852, 2853, 2852]
ch0 : [2476, 2444, 2523, 2496, 2244, 2418, 2472, 2513, 2468, 2435]
ch1 : [3202, 3189, 3194, 3191, 3199, 3196, 3194, 3190, 3191, 3197]
ch2 : [1109, 1106, 1097, 1082, 1105, 1116, 1110, 1119, 1102, 1103]
ch3 : [2850, 2854, 2850, 2850, 2856, 2857, 2858, 2860, 2857, 2857]
ch0 : [2472, 2182, 2367, 2433, 2443, 2440, 2400, 2382, 2474, 2420]
ch1 : [3193, 3196, 3192, 3193, 3195, 3196, 3193, 3193, 3206, 3194]
ch2 : [1079, 1098, 1108, 1107, 1102, 1095, 1096, 1093, 1087, 1079]
ch3 : [2859, 2861, 2866, 2868, 2864, 2862, 2862, 2864, 2864, 2865]
ch0 : [2317, 2379, 2398, 2434, 2410, 2380, 2504, 2428, 2158, 2356]
ch1 : [3196, 3194, 3196, 3193, 3191, 3192, 3191, 3192, 3194, 3192]
ch2 : [1098, 1105, 1100, 1099, 1098, 1096, 1096, 1074, 1092, 1105]
ch3 : [2870, 2868, 2872, 2864, 2866, 2865, 2867, 2865, 2866, 2869]
ch0 : [2397, 2428, 2426, 2378, 2385, 2490, 2449, 2308, 2400, 2405]
ch1 : [3193, 3191, 3184, 3187, 3194, 3188, 3193, 3200, 3193, 3191]
ch2 : [1111, 1099, 1094, 1094, 1097, 1083, 1073, 1097, 1093, 1094]
ch3 : [2863, 2871, 2871, 2866, 2869, 2855, 2869, 2873, 2872, 2870]
ch0 : [2419, 2416, 2377, 2493, 2437, 2117, 2331, 2384, 2400, 2412]
ch1 : [3187, 3196, 3195, 3181, 3194, 3195, 3195, 3191, 3191, 3191]
ch2 : [1091, 1097, 1090, 1083, 1067, 1082, 1099, 1095, 1099, 1084]
ch3 : [2867, 2863, 2876, 2869, 2872, 2868, 2874, 2876, 2875, 2872]
ch0 : [2361, 2348, 2490, 2442, 2298, 2382, 2386, 2418, 2386, 2370]
ch1 : [3192, 3195, 3193, 3199, 3195, 3195, 3197, 3190, 3186, 3198]
ch2 : [1089, 1090, 1079, 1070, 1085, 1107, 1095, 1101, 1091, 1095]
ch3 : [2874, 2874, 2871, 2873, 2884, 2879, 2873, 2878, 2876, 2876]
ch0 : [2473, 2475, 2129, 2367, 2429, 2442, 2460, 2424, 2420, 2492]
ch1 : [3195, 3191, 3197, 3191, 3196, 3197, 3193, 3195, 3193, 3193]
ch2 : [1096, 1066, 1079, 1101, 1100, 1092, 1088, 1090, 1092, 1080]
ch3 : [2876, 2885, 2869, 2879, 2878, 2878, 2881, 2874, 2879, 2876]
ch0 : [2476, 2321, 2443, 2463, 2487, 2485, 2440, 2444, 2487, 2188]
ch1 : [3196, 3196, 3193, 3187, 3199, 3191, 3205, 3194, 3195, 3197]
ch2 : [1071, 1085, 1099, 1094, 1095, 1093, 1094, 1095, 1073, 1081]
ch3 : [2880, 2884, 2883, 2882, 2876, 2874, 2876, 2881, 2874, 2879]
ch0 : [2404, 2469, 2485, 2511, 2462, 2453, 2524, 2495, 2345, 2458]
ch1 : [3195, 3193, 3196, 3190, 3190, 3194, 3191, 3200, 3197, 3196]
ch2 : [1102, 1103, 1095, 1097, 1088, 1100, 1079, 1075, 1095, 1103]
ch3 : [2879, 2881, 2878, 2876, 2876, 2878, 2875, 2880, 2882, 2882]
ch0 : [2480, 2496, 2471, 2431, 2404, 2494, 2179, 2382, 2455, 2467]
ch1 : [3204, 3193, 3191, 3196, 3195, 3192, 3197, 3196, 3193, 3192]
ch2 : [1096, 1104, 1094, 1096, 1095, 1076, 1079, 1105, 1106, 1099]
ch3 : [2883, 2883, 2877, 2881, 2884, 2880, 2880, 2885, 2886, 2882]
ch0 : [2495, 2441, 2437, 2529, 2493, 2315, 2428, 2447, 2463, 2444]
ch1 : [3189, 3196, 3198, 3191, 3194, 3190, 3195, 3192, 3195, 3197]
ch2 : [1094, 1091, 1098, 1085, 1075, 1092, 1104, 1105, 1100, 1096]
ch3 : [2884, 2884, 2881, 2883, 2884, 2889, 2885, 2887, 2883, 2888]
ch0 : [2519, 2502, 2315, 2443, 2456, 2487, 2475, 2440, 2398, 2523]
ch1 : [3186, 3192, 3194, 3190, 3192, 3192, 3190, 3195, 3190, 3187]
ch2 : [1087, 1076, 1095, 1098, 1105, 1099, 1096, 1096, 1104, 1078]
ch3 : [2886, 2888, 2892, 2883, 2892, 2889, 2893, 2887, 2887, 2886]
ch0 : [2320, 2353, 2447, 2452, 2516, 2452, 2453, 2521, 2462, 2311]
ch1 : [3195, 3190, 3193, 3192, 3191, 3192, 3191, 3192, 3191, 3192]
ch2 : [1071, 1105, 1105, 1101, 1099, 1095, 1100, 1089, 1082, 1092]
ch3 : [2886, 2878, 2891, 2892, 2887, 2883, 2882, 2888, 2887, 2888]
ch0 : [2433, 2444, 2478, 2468, 2443, 2390, 2521, 2361, 2354, 2444]
ch1 : [3194, 3193, 3191, 3195, 3187, 3193, 3187, 3206, 3197, 3195]
ch2 : [1102, 1099, 1105, 1099, 1097, 1100, 1078, 1079, 1100, 1109]
ch3 : [2890, 2893, 2890, 2893, 2896, 2891, 2892, 2890, 2896, 2892]
ch0 : [2444, 2511, 2440, 2435, 2526, 2483, 2292, 2449, 2473, 2490]
ch1 : [3192, 3193, 3194, 3195, 3197, 3191, 3187, 3191, 3197, 3194]
ch2 : [1103, 1093, 1097, 1099, 1094, 1085, 1088, 1109, 1104, 1104]
ch3 : [2891, 2885, 2889, 2897, 2888, 2890, 2896, 2894, 2893, 2896]
ch0 : [2493, 2459, 2435, 2532, 2443, 2364, 2487, 2507, 2531, 2480]
ch1 : [3194, 3186, 3193, 3192, 3193, 3194, 3183, 3200, 3190, 3190]
ch2 : [1098, 1099, 1101, 1077, 1076, 1099, 1107, 1103, 1096, 1092]
ch3 : [2891, 2892, 2896, 2891, 2889, 2892, 2896, 2895, 2892, 2887]
ch0 : [2478, 2535, 2537, 2320, 2457, 2508, 2487, 2512, 2466, 2437]
ch1 : [3193, 3187, 3194, 3195, 3191, 3207, 3190, 3190, 3190, 3194]
ch2 : [1098, 1094, 1083, 1089, 1108, 1105, 1100, 1095, 1098, 1097]
ch3 : [2888, 2893, 2893, 2880, 2893, 2893, 2892, 2894, 2890, 2893]
ch0 : [2523, 2514, 2343, 2477, 2497, 2537, 2487, 2467, 2541, 2519]
ch1 : [3193, 3191, 3193, 3187, 3193, 3190, 3193, 3192, 3189, 3187]
ch2 : [1076, 1076, 1104, 1108, 1103, 1103, 1096, 1100, 1094, 1082]
ch3 : [2891, 2888, 2904, 2897, 2894, 2891, 2891, 2892, 2894, 2887]
ch0 : [2284, 2447, 2477, 2459, 2486, 2447, 2428, 2531, 2447, 2324]
ch1 : [3194, 3191, 3194, 3191, 3194, 3193, 3195, 3191, 3192, 3196]
ch2 : [1088, 1104, 1107, 1103, 1105, 1099, 1101, 1088, 1077, 1103]
ch3 : [2898, 2895, 2896, 2900, 2897, 2894, 2893, 2895, 2894, 2900]
ch0 : [2455, 2478, 2535, 2451, 2454, 2535, 2537, 2257, 2406, 2465]
ch1 : [3197, 3193, 3180, 3197, 3197, 3192, 3190, 3197, 3195, 3193]
ch2 : [1113, 1105, 1102, 1097, 1100, 1104, 1085, 1089, 1108, 1108]
ch3 : [2898, 2898, 2897, 2898, 2894, 2898, 2896, 2897, 2900, 2899]
ch0 : [2462, 2468, 2454, 2436, 2542, 2491, 2280, 2465, 2477, 2526]
ch1 : [3195, 3191, 3191, 3188, 3191, 3196, 3194, 3192, 3192, 3191]
ch2 : [1108, 1097, 1102, 1103, 1084, 1078, 1102, 1110, 1107, 1102]
ch3 : [2903, 2900, 2897, 2899, 2895, 2896, 2904, 2899, 2899, 2901]
ch0 : [2462, 2431, 2531, 2533, 2249, 2409, 2470, 2470, 2482, 2457]
ch1 : [3187, 3192, 3192, 3189, 3199, 3192, 3191, 3195, 3186, 3197]
ch2 : [1098, 1097, 1102, 1082, 1085, 1108, 1108, 1107, 1106, 1102]
ch3 : [2899, 2896, 2900, 2885, 2900, 2900, 2903, 2900, 2902, 2900]
ch0 : [2439, 2537, 2511, 2277, 2450, 2474, 2532, 2482, 2448, 2481]
ch1 : [3193, 3195, 3194, 3200, 3194, 3195, 3191, 3191, 3193, 3194]
ch2 : [1093, 1093, 1090, 1104, 1115, 1107, 1105, 1117, 1090, 1103]
ch3 : [2907, 2899, 2901, 2904, 2906, 2906, 2905, 2899, 2905, 2903]
ch0 : [2526, 2321, 2423, 2482, 2476, 2493, 2459, 2456, 2535, 2525]
ch1 : [3196, 3189, 3194, 3193, 3192, 3191, 3190, 3197, 3190, 3192]
ch2 : [1092, 1082, 1107, 1108, 1108, 1107, 1105, 1104, 1098, 1082]
ch3 : [2901, 2903, 2912, 2905, 2905, 2903, 2898, 2907, 2900, 2902]
ch0 : [2293, 2459, 2488, 2525, 2492, 2448, 2451, 2525, 2376, 2405]
ch1 : [3191, 3194, 3196, 3193, 3195, 3191, 3196, 3190, 3200, 3178]
ch2 : [1104, 1117, 1115, 1107, 1105, 1110, 1107, 1088, 1086, 1113]
ch3 : [2906, 2905, 2906, 2905, 2899, 2903, 2905, 2916, 2905, 2907]
ch0 : [2471, 2463, 2488, 2464, 2453, 2539, 2470, 2254, 2441, 2473]
ch1 : [3194, 3195, 3196, 3196, 3197, 3190, 3191, 3189, 3187, 3190]
ch2 : [1112, 1108, 1104, 1107, 1106, 1112, 1079, 1102, 1116, 1116]
ch3 : [2908, 2905, 2906, 2905, 2913, 2903, 2905, 2904, 2906, 2907]
ch0 : [2521, 2478, 2434, 2433, 2510, 2428, 2396, 2464, 2461, 2488]
ch1 : [3197, 3192, 3196, 3193, 3192, 3192, 3191, 3192, 3193, 3192]
ch2 : [1110, 1104, 1106, 1106, 1090, 1088, 1104, 1112, 1113, 1108]
ch3 : [2907, 2905, 2910, 2907, 2904, 2904, 2909, 2905, 2908, 2902]
ch0 : [2456, 2446, 2534, 2497, 2250, 2427, 2495, 2502, 2499, 2457]
ch1 : [3193, 3198, 3196, 3191, 3195, 3192, 3191, 3194, 3187, 3193]
ch2 : [1107, 1118, 1096, 1086, 1104, 1115, 1117, 1116, 1105, 1106]
ch3 : [2903, 2905, 2908, 2917, 2905, 2908, 2912, 2908, 2905, 2905]
ch0 : [2451, 2529, 2462, 2411, 2485, 2478, 2498, 2493, 2468, 2539]
ch1 : [3193, 3195, 3196, 3191, 3192, 3193, 3205, 3192, 3191, 3200]
ch2 : [1108, 1091, 1099, 1107, 1114, 1111, 1110, 1104, 1104, 1104]
ch3 : [2904, 2906, 2902, 2909, 2908, 2909, 2908, 2907, 2909, 2908]
ch0 : [2444, 2244, 2417, 2474, 2491, 2500, 2447, 2456, 2529, 2525]
ch1 : [3197, 3191, 3196, 3200, 3190, 3188, 3195, 3193, 3194, 3191]
ch2 : [1083, 1099, 1111, 1113, 1123, 1102, 1105, 1107, 1091, 1086]
ch3 : [2906, 2906, 2897, 2909, 2908, 2896, 2904, 2905, 2909, 2907]
ch0 : [2385, 2467, 2479, 2494, 2476, 2457, 2539, 2474, 2195, 2425]
ch1 : [3192, 3192, 3191, 3193, 3195, 3196, 3191, 3188, 3194, 3190]
ch2 : [1104, 1112, 1111, 1109, 1107, 1106, 1100, 1081, 1099, 1114]
ch3 : [2908, 2912, 2909, 2908, 2909, 2906, 2906, 2903, 2909, 2909]
ch0 : [2495, 2472, 2433, 2530, 2467, 2204, 2419, 2464, 2481, 2517]
ch1 : [3189, 3193, 3193, 3193, 3190, 3194, 3195, 3193, 3197, 3191]
ch2 : [1105, 1109, 1104, 1104, 1083, 1093, 1114, 1113, 1109, 1101]
ch3 : [2912, 2914, 2911, 2895, 2906, 2913, 2909, 2914, 2913, 2907]
ch0 : [2439, 2447, 2534, 2477, 2372, 2458, 2473, 2492, 2479, 2420]
ch1 : [3181, 3203, 3180, 3206, 3195, 3192, 3186, 3193, 3193, 3190]
ch2 : [1103, 1105, 1092, 1086, 1122, 1115, 1110, 1107, 1107, 1100]
ch3 : [2913, 2920, 2907, 2911, 2908, 2911, 2910, 2909, 2911, 2908]
ch0 : [2488, 2504, 2186, 2411, 2481, 2480, 2522, 2459, 2464, 2538]
ch1 : [3196, 3194, 3194, 3194, 3191, 3197, 3191, 3192, 3201, 3196]
ch2 : [1105, 1082, 1094, 1114, 1113, 1107, 1105, 1102, 1107, 1094]
ch3 : [2914, 2905, 2908, 2911, 2915, 2916, 2911, 2913, 2911, 2909]
ch0 : [2535, 2366, 2457, 2467, 2515, 2462, 2424, 2431, 2526, 2179]
ch1 : [3197, 3188, 3197, 3191, 3187, 3196, 3192, 3195, 3190, 3195]
ch2 : [1088, 1100, 1113, 1117, 1106, 1112, 1107, 1108, 1086, 1087]
ch3 : [2909, 2910, 2917, 2912, 2912, 2912, 2909, 2909, 2902, 2908]
ch0 : [2421, 2483, 2489, 2519, 2446, 2434, 2534, 2511, 2420, 2503]
ch1 : [3195, 3186, 3192, 3196, 3193, 3194, 3190, 3192, 3193, 3191]
ch2 : [1118, 1116, 1112, 1105, 1103, 1098, 1097, 1082, 1105, 1114]
ch3 : [2910, 2911, 2911, 2896, 2906, 2908, 2909, 2910, 2912, 2909]
ch0 : [2518, 2478, 2482, 2429, 2451, 2546, 2369, 2437, 2493, 2444]
ch1 : [3189, 3191, 3189, 3192, 3194, 3190, 3187, 3196, 3193, 3196]
ch2 : [1113, 1106, 1106, 1107, 1108, 1089, 1088, 1119, 1115, 1110]
ch3 : [2903, 2908, 2903, 2907, 2905, 2903, 2901, 2904, 2900, 2897]
ch0 : [2398, 2389, 2468, 2547, 2552, 2337, 2486, 2434, 2478, 2480]
ch1 : [3177, 3187, 3191, 3193, 3185, 3195, 3197, 3192, 3187, 3196]
ch2 : [1104, 1104, 1109, 1098, 1084, 1103, 1111, 1115, 1108, 1109]
ch3 : [2892, 2897, 2898, 2898, 2898, 2901, 2895, 2900, 2893, 2890]
ch0 : [2435, 2383, 2541, 2261, 2421, 2521, 2542, 2555, 2482, 2374]
ch1 : [3192, 3194, 3192, 3195, 3193, 3194, 3196, 3192, 3193, 3195]
ch2 : [1103, 1109, 1089, 1084, 1112, 1115, 1110, 1105, 1101, 1104]
ch3 : [2889, 2897, 2893, 2901, 2903, 2905, 2884, 2882, 2893, 2894]
ch0 : [2469, 2520, 2420, 2546, 2553, 2556, 2348, 2389, 2362, 2529]
ch1 : [3191, 3191, 3194, 3195, 3191, 3192, 3196, 3193, 3204, 3193]
ch2 : [1087, 1087, 1102, 1112, 1109, 1095, 1099, 1105, 1107, 1085]
ch3 : [2896, 2895, 2896, 2905, 2895, 2889, 2884, 2890, 2902, 2895]
ch0 : [2317, 2293, 2420, 2536, 2542, 2503, 2419, 2537, 2543, 2285]
ch1 : [3195, 3193, 3191, 3192, 3188, 3189, 3187, 3190, 3191, 3193]
ch2 : [1084, 1109, 1110, 1109, 1104, 1096, 1101, 1095, 1088, 1097]
ch3 : [2893, 2905, 2903, 2910, 2900, 2896, 2896, 2900, 2906, 2910]
ch0 : [2398, 2471, 2448, 2475, 2535, 2467, 2538, 2437, 2278, 2523]
ch1 : [3191, 3193, 3192, 3189, 3193, 3188, 3191, 3193, 3204, 3192]
ch2 : [1107, 1107, 1105, 1106, 1113, 1104, 1086, 1078, 1106, 1106]
ch3 : [2908, 2902, 2893, 2906, 2907, 2901, 2894, 2892, 2892, 2891]
ch0 : [2449, 2532, 2321, 2402, 2531, 2533, 2385, 2485, 2376, 2369]
ch1 : [3193, 3191, 3191, 3192, 3191, 3193, 3195, 3185, 3205, 3200]
ch2 : [1111, 1088, 1098, 1103, 1096, 1082, 1096, 1107, 1105, 1109]
ch3 : [2896, 2894, 2889, 2886, 2890, 2895, 2893, 2892, 2884, 2886]
ch0 : [2448, 2463, 2494, 2533, 2357, 2245, 2417, 2527, 2529, 2477]
ch1 : [3188, 3192, 3192, 3189, 3193, 3197, 3193, 3196, 3190, 3196]
ch2 : [1102, 1098, 1102, 1083, 1079, 1107, 1112, 1109, 1101, 1100]
ch3 : [2888, 2896, 2903, 2896, 2896, 2900, 2903, 2900, 2889, 2891]
ch0 : [2535, 2544, 2411, 2105, 2353, 2516, 2454, 2453, 2484, 2334]
ch1 : [3198, 3191, 3188, 3190, 3191, 3192, 3200, 3195, 3193, 3196]
ch2 : [1105, 1100, 1083, 1092, 1115, 1114, 1100, 1092, 1100, 1104]
ch3 : [2887, 2881, 2881, 2899, 2902, 2897, 2885, 2896, 2887, 2886]
ch0 : [2532, 2535, 2349, 2390, 2359, 2515, 2531, 2450, 2532, 2536]
ch1 : [3195, 3192, 3192, 3195, 3199, 3192, 3192, 3196, 3189, 3190]
ch2 : [1090, 1084, 1109, 1110, 1110, 1108, 1107, 1106, 1103, 1087]
ch3 : [2881, 2883, 2888, 2890, 2882, 2881, 2880, 2881, 2892, 2879]
ch0 : [2322, 2387, 2473, 2522, 2522, 2341, 2404, 2547, 2480, 2293]
ch1 : [3190, 3196, 3193, 3189, 3200, 3194, 3194, 3192, 3195, 3188]
ch2 : [1099, 1113, 1115, 1114, 1109, 1090, 1110, 1095, 1082, 1111]
ch3 : [2871, 2866, 2872, 2877, 2876, 2872, 2863, 2858, 2849, 2862]
ch0 : [2389, 2328, 2459, 2508, 2505, 2535, 2428, 2004, 2201, 2462]
ch1 : [3184, 3194, 3192, 3193, 3192, 3188, 3191, 3193, 3197, 3196]
ch2 : [1124, 1099, 1111, 1108, 1107, 1106, 1089, 1098, 1115, 1115]
ch3 : [2878, 2871, 2869, 2868, 2860, 2855, 2853, 2866, 2868, 2862]
ch0 : [2518, 2525, 2262, 2143, 2468, 2514, 2401, 2367, 2448, 2513]
ch1 : [3191, 3192, 3198, 3190, 3191, 3193, 3192, 3192, 3190, 3190]
ch2 : [1110, 1111, 1107, 1107, 1111, 1088, 1111, 1114, 1117, 1106]
ch3 : [2854, 2856, 2859, 2856, 2855, 2853, 2847, 2844, 2849, 2852]
ch0 : [2391, 2301, 2509, 2519, 2195, 2320, 2484, 2427, 2362, 2506]
ch1 : [3188, 3193, 3189, 3193, 3195, 3196, 3190, 3194, 3195, 3195]
ch2 : [1114, 1110, 1116, 1100, 1097, 1117, 1124, 1124, 1127, 1114]
ch3 : [2853, 2852, 2849, 2841, 2832, 2830, 2831, 2843, 2843, 2842]
ch0 : [2471, 2518, 2426, 2171, 2313, 2444, 2522, 2521, 2275, 2345]
ch1 : [3196, 3192, 3194, 3185, 3195, 3194, 3195, 3193, 3194, 3199]
ch2 : [1127, 1108, 1093, 1118, 1124, 1119, 1124, 1115, 1119, 1118]
ch3 : [2837, 2831, 2841, 2830, 2829, 2834, 2838, 2831, 2835, 2829]
ch0 : [2270, 2305, 2405, 2412, 2447, 2419, 2435, 2481, 2348, 2403]
ch1 : [3192, 3193, 3193, 3196, 3192, 3191, 3191, 3194, 3190, 3187]
ch2 : [1106, 1131, 1123, 1123, 1117, 1120, 1118, 1101, 1099, 1120]
ch3 : [2824, 2816, 2828, 2822, 2820, 2815, 2815, 2822, 2838, 2823]
ch0 : [2459, 2360, 2271, 2344, 2478, 2498, 2398, 2221, 2460, 2415]
ch1 : [3189, 3194, 3194, 3193, 3193, 3193, 3188, 3198, 3192, 3192]
ch2 : [1124, 1115, 1116, 1117, 1115, 1105, 1086, 1107, 1120, 1119]
ch3 : [2817, 2815, 2813, 2818, 2811, 2813, 2806, 2808, 2802, 2797]
ch0 : [2295, 2245, 2358, 2475, 2490, 2374, 2394, 2349, 2259, 2315]
ch1 : [3192, 3193, 3196, 3192, 3198, 3196, 3195, 3195, 3194, 3195]
ch2 : [1111, 1107, 1103, 1111, 1092, 1088, 1112, 1115, 1112, 1107]
ch3 : [2799, 2802, 2807, 2808, 2802, 2799, 2797, 2795, 2799, 2800]
ch0 : [2382, 2418, 2482, 2469, 2123, 2324, 2354, 2356, 2383, 2368]
ch1 : [3193, 3197, 3193, 3193, 3194, 3190, 3194, 3196, 3193, 3195]
ch2 : [1097, 1107, 1102, 1086, 1101, 1121, 1116, 1112, 1107, 1109]
ch3 : [2808, 2799, 2800, 2793, 2796, 2799, 2809, 2806, 2798, 2794]
ch0 : [2403, 2480, 2382, 2286, 2362, 2367, 2370, 2384, 2347, 2467]
ch1 : [3190, 3190, 3193, 3191, 3191, 3196, 3193, 3197, 3187, 3193]
ch2 : [1112, 1100, 1090, 1119, 1121, 1118, 1116, 1114, 1114, 1110]
ch3 : [2800, 2795, 2798, 2799, 2801, 2803, 2800, 2798, 2813, 2796]
ch0 : [2347, 2125, 2321, 2357, 2335, 2367, 2357, 2331, 2462, 2417]
ch1 : [3191, 3196, 3195, 3193, 3193, 3200, 3205, 3197, 3186, 3195]
ch2 : [1096, 1109, 1123, 1128, 1124, 1114, 1114, 1114, 1100, 1093]
ch3 : [2795, 2797, 2799, 2798, 2801, 2797, 2796, 2798, 2800, 2796]
ch0 : [2255, 2357, 2375, 2414, 2369, 2362, 2463, 2407, 2144, 2312]
ch1 : [3194, 3192, 3194, 3191, 3191, 3192, 3205, 3196, 3196, 3199]
ch2 : [1110, 1123, 1119, 1117, 1114, 1121, 1111, 1091, 1107, 1119]
ch3 : [2797, 2791, 2791, 2797, 2793, 2798, 2792, 2792, 2792, 2803]
ch0 : [2313, 2348, 2439, 2359, 2351, 2462, 2409, 2274, 2339, 2385]
ch1 : [3195, 3191, 3193, 3195, 3191, 3190, 3187, 3191, 3190, 3193]
ch2 : [1124, 1118, 1111, 1116, 1114, 1101, 1092, 1119, 1118, 1119]
ch3 : [2794, 2791, 2797, 2793, 2790, 2791, 2791, 2794, 2800, 2796]
ch0 : [2424, 2384, 2344, 2455, 2455, 2089, 2316, 2370, 2379, 2381]
ch1 : [3189, 3196, 3190, 3194, 3187, 3195, 3197, 3200, 3200, 3197]
ch2 : [1117, 1115, 1117, 1119, 1092, 1101, 1124, 1124, 1120, 1113]
ch3 : [2789, 2792, 2797, 2795, 2790, 2787, 2800, 2801, 2796, 2795]
ch0 : [2327, 2339, 2463, 2391, 2256, 2358, 2368, 2397, 2390, 2326]
ch1 : [3198, 3183, 3190, 3195, 3195, 3191, 3193, 3194, 3197, 3195]
ch2 : [1113, 1115, 1106, 1100, 1117, 1128, 1124, 1122, 1118, 1119]
ch3 : [2797, 2798, 2799, 2800, 2801, 2802, 2801, 2804, 2801, 2802]
ch0 : [2371, 2458, 2092, 2309, 2382, 2393, 2422, 2365, 2356, 2466]
ch1 : [3193, 3191, 3199, 3194, 3193, 3191, 3196, 3193, 3194, 3196]
ch2 : [1121, 1094, 1108, 1125, 1128, 1122, 1118, 1116, 1113, 1106]
ch3 : [2805, 2807, 2803, 2807, 2808, 2803, 2808, 2806, 2812, 2813]
ch0 : [2423, 2250, 2366, 2382, 2405, 2379, 2339, 2332, 2459, 2099]
ch1 : [3193, 3194, 3194, 3191, 3195, 3191, 3191, 3193, 3195, 3197]
ch2 : [1098, 1112, 1124, 1122, 1122, 1114, 1132, 1117, 1096, 1085]
ch3 : [2814, 2815, 2817, 2818, 2809, 2818, 2817, 2831, 2817, 2824]
ch0 : [2303, 2398, 2389, 2433, 2347, 2363, 2476, 2403, 2254, 2383]
ch1 : [3193, 3180, 3192, 3193, 3191, 3193, 3203, 3191, 3195, 3191]
ch2 : [1117, 1127, 1116, 1113, 1113, 1115, 1102, 1094, 1103, 1104]
ch3 : [2820, 2824, 2821, 2821, 2824, 2819, 2821, 2823, 2826, 2822]
ch0 : [2411, 2439, 2404, 2379, 2363, 2481, 2234, 2337, 2447, 2461]
ch1 : [3192, 3201, 3192, 3191, 3193, 3194, 3193, 3193, 3192, 3192]
ch2 : [1120, 1113, 1114, 1108, 1113, 1086, 1090, 1111, 1117, 1116]
ch3 : [2823, 2821, 2825, 2828, 2826, 2829, 2825, 2832, 2831, 2832]
ch0 : [2481, 2416, 2434, 2491, 2478, 2308, 2441, 2462, 2492, 2483]
ch1 : [3196, 3192, 3188, 3193, 3192, 3196, 3193, 3190, 3194, 3196]
ch2 : [1109, 1101, 1111, 1097, 1089, 1106, 1114, 1115, 1108, 1111]
ch3 : [2827, 2830, 2827, 2832, 2832, 2832, 2835, 2831, 2835, 2833]
ch0 : [2429, 2377, 2510, 2308, 2337, 2455, 2471, 2495, 2440, 2430]
ch1 : [3193, 3192, 3187, 3193, 3194, 3195, 3195, 3180, 3190, 3195]
ch2 : [1102, 1102, 1086, 1088, 1106, 1114, 1104, 1104, 1102, 1102]
ch3 : [2833, 2837, 2828, 2821, 2831, 2836, 2837, 2840, 2835, 2835]
ch0 : [2514, 2478, 2281, 2415, 2442, 2461, 2423, 2390, 2358, 2512]
ch1 : [3192, 3192, 3193, 3198, 3193, 3194, 3187, 3188, 3193, 3187]
ch2 : [1095, 1082, 1097, 1113, 1109, 1098, 1102, 1098, 1100, 1082]
ch3 : [2841, 2850, 2840, 2848, 2846, 2845, 2841, 2842, 2841, 2838]
ch0 : [2304, 2297, 2411, 2420, 2455, 2387, 2379, 2500, 2430, 2220]
ch1 : [3198, 3193, 3201, 3193, 3193, 3192, 3192, 3200, 3190, 3194]
ch2 : [1078, 1103, 1112, 1105, 1115, 1097, 1100, 1088, 1079, 1089]
ch3 : [2844, 2845, 2843, 2847, 2846, 2845, 2845, 2842, 2843, 2845]
ch0 : [2361, 2407, 2388, 2404, 2369, 2322, 2492, 2413, 2260, 2372]
ch1 : [3192, 3191, 3191, 3187, 3195, 3197, 3193, 3191, 3192, 3193]
ch2 : [1102, 1100, 1102, 1090, 1094, 1105, 1077, 1066, 1104, 1103]
ch3 : [2851, 2846, 2846, 2847, 2845, 2848, 2842, 2842, 2849, 2850]
ch0 : [2409, 2445, 2377, 2382, 2490, 2456, 2217, 2343, 2397, 2389]
ch1 : [3192, 3192, 3196, 3187, 3195, 3192, 3198, 3197, 3196, 3193]
ch2 : [1099, 1092, 1091, 1094, 1090, 1076, 1082, 1098, 1099, 1096]
ch3 : [2852, 2849, 2849, 2856, 2847, 2847, 2849, 2851, 2852, 2852]
ch0 : [2399, 2362, 2333, 2469, 2485, 2241, 2372, 2403, 2461, 2388]
ch1 : [3187, 3194, 3191, 3192, 3195, 3196, 3193, 3196, 3195, 3192]
ch2 : [1094, 1093, 1092, 1079, 1068, 1083, 1101, 1101, 1091, 1087]
ch3 : [2852, 2851, 2849, 2852, 2847, 2852, 2854, 2855, 2854, 2851]
ch0 : [2376, 2481, 2446, 2200, 2347, 2375, 2373, 2411, 2365, 2371]
ch1 : [3194, 3194, 3192, 3189, 3195, 3194, 3196, 3193, 3196, 3200]
ch2 : [1096, 1088, 1075, 1079, 1096, 1103, 1097, 1079, 1092, 1094]
ch3 : [2853, 2855, 2850, 2853, 2855, 2858, 2857, 2851, 2856, 2860]
ch0 : [2479, 2409, 2243, 2377, 2404, 2473, 2418, 2385, 2490, 2450]
ch1 : [3192, 3191, 3194, 3189, 3201, 3193, 3195, 3202, 3194, 3192]
ch2 : [1080, 1068, 1102, 1105, 1100, 1094, 1089, 1092, 1097, 1076]
ch3 : [2855, 2856, 2856, 2859, 2860, 2858, 2855, 2855, 2859, 2842]
ch0 : [2185, 2362, 2410, 2411, 2430, 2403, 2364, 2486, 2398, 2247]
ch1 : [3197, 3190, 3194, 3194, 3200, 3192, 3192, 3195, 3192, 3196]
ch2 : [1080, 1099, 1100, 1098, 1097, 1095, 1094, 1078, 1069, 1096]
ch3 : [2860, 2858, 2856, 2860, 2860, 2856, 2861, 2856, 2860, 2861]
ch0 : [2399, 2432, 2482, 2445, 2389, 2474, 2466, 2268, 2371, 2449]
ch1 : [3197, 3194, 3194, 3196, 3200, 3190, 3191, 3195, 3192, 3191]
ch2 : [1106, 1088, 1097, 1105, 1094, 1100, 1073, 1082, 1104, 1105]
ch3 : [2869, 2860, 2862, 2860, 2859, 2860, 2861, 2858, 2865, 2859]
ch0 : [2430, 2439, 2419, 2392, 2500, 2480, 2244, 2410, 2441, 2474]
ch1 : [3192, 3191, 3193, 3192, 3194, 3191, 3193, 3194, 3191, 3203]
ch2 : [1103, 1085, 1102, 1096, 1086, 1068, 1098, 1107, 1103, 1099]
ch3 : [2862, 2864, 2862, 2872, 2859, 2862, 2865, 2867, 2865, 2865]
ch0 : [2419, 2397, 2425, 2495, 2330, 2366, 2435, 2414, 2435, 2415]
ch1 : [3192, 3191, 3192, 3188, 3197, 3192, 3196, 3197, 3197, 3199]
ch2 : [1098, 1094, 1098, 1081, 1085, 1103, 1105, 1103, 1100, 1102]
ch3 : [2864, 2864, 2865, 2862, 2866, 2863, 2871, 2866, 2866, 2863]
ch0 : [2411, 2506, 2431, 2198, 2384, 2429, 2489, 2460, 2377, 2390]
ch1 : [3192, 3196, 3191, 3197, 3203, 3192, 3193, 3191, 3194, 3192]
ch2 : [1101, 1090, 1077, 1096, 1108, 1102, 1099, 1101, 1092, 1098]
ch3 : [2864, 2878, 2864, 2867, 2863, 2867, 2868, 2865, 2866, 2871]
ch0 : [2171, 2362, 2395, 2439, 2406, 2355, 2374, 2480, 2371, 2299]
ch1 : [3194, 3190, 3191, 3191, 3190, 3200, 3189, 3191, 3191, 3194]
ch2 : [1096, 1109, 1099, 1103, 1087, 1100, 1098, 1079, 1061, 1102]
ch3 : [2868, 2870, 2870, 2871, 2868, 2869, 2871, 2867, 2867, 2874]
ch0 : [2394, 2394, 2414, 2383, 2394, 2484, 2390, 2176, 2380, 2412]
ch1 : [3196, 3192, 3193, 3191, 3195, 3177, 3193, 3197, 3187, 3193]
ch2 : [1105, 1097, 1098, 1091, 1097, 1090, 1073, 1098, 1106, 1105]
ch3 : [2875, 2872, 2867, 2882, 2868, 2872, 2869, 2871, 2876, 2874]
ch0 : [2420, 2443, 2409, 2392, 2478, 2407, 2344, 2430, 2420, 2442]
ch1 : [3187, 3186, 3194, 3191, 3194, 3192, 3194, 3194, 3196, 3192]
ch2 : [1101, 1096, 1092, 1095, 1084, 1081, 1085, 1106, 1104, 1104]
ch3 : [2876, 2873, 2872, 2872, 2870, 2871, 2880, 2869, 2875, 2870]
ch0 : [2438, 2417, 2491, 2487, 2185, 2383, 2426, 2432, 2472, 2406]
ch1 : [3193, 3191, 3187, 3181, 3195, 3187, 3191, 3197, 3207, 3190]
ch2 : [1098, 1095, 1094, 1078, 1094, 1108, 1111, 1105, 1098, 1099]
ch3 : [2880, 2879, 2877, 2870, 2875, 2874, 2875, 2877, 2873, 2870]
ch0 : [2404, 2499, 2485, 2349, 2435, 2435, 2477, 2447, 2423, 2503]
ch1 : [3192, 3192, 3193, 3192, 3194, 3192, 3193, 3192, 3192, 3191]
ch2 : [1101, 1085, 1083, 1102, 1109, 1105, 1105, 1101, 1103, 1100]
ch3 : [2875, 2874, 2873, 2875, 2877, 2875, 2876, 2873, 2876, 2878]
ch0 : [2497, 2178, 2388, 2442, 2465, 2500, 2424, 2416, 2513, 2508]
ch1 : [3195, 3197, 3191, 3191, 3196, 3193, 3191, 3195, 3192, 3191]
ch2 : [1077, 1091, 1111, 1109, 1104, 1100, 1098, 1102, 1087, 1080]
ch3 : [2872, 2874, 2877, 2880, 2879, 2873, 2867, 2874, 2874, 2877]
ch0 : [2442, 2471, 2504, 2432, 2427, 2510, 2519, 2353, 2433, 2453]
ch1 : [3197, 3194, 3195, 3200, 3191, 3193, 3190, 3192, 3191, 3196]
ch2 : [1109, 1104, 1101, 1101, 1100, 1088, 1080, 1101, 1109, 1106]
ch3 : [2881, 2878, 2877, 2877, 2880, 2876, 2880, 2884, 2886, 2879]
ch0 : [2488, 2467, 2421, 2466, 2440, 2177, 2384, 2462, 2485, 2502]
ch1 : [3193, 3190, 3190, 3191, 3192, 3195, 3192, 3192, 3191, 3195]
ch2 : [1104, 1113, 1101, 1102, 1079, 1091, 1107, 1114, 1106, 1100]
ch3 : [2879, 2879, 2873, 2881, 2875, 2878, 2890, 2878, 2881, 2881]
ch0 : [2444, 2467, 2528, 2509, 2338, 2457, 2484, 2497, 2448, 2426]
ch1 : [3192, 3196, 3191, 3191, 3197, 3193, 3193, 3191, 3196, 3191]
ch2 : [1099, 1106, 1092, 1089, 1103, 1116, 1106, 1105, 1103, 1105]
ch3 : [2875, 2878, 2879, 2881, 2884, 2887, 2882, 2881, 2879, 2880]
ch0 : [2413, 2523, 2170, 2386, 2446, 2464, 2485, 2423, 2439, 2529]
ch1 : [3192, 3193, 3197, 3192, 3194, 3191, 3187, 3188, 3193, 3191]
ch2 : [1108, 1084, 1092, 1116, 1109, 1122, 1102, 1106, 1104, 1097]
ch3 : [2879, 2878, 2880, 2882, 2884, 2883, 2882, 2879, 2884, 2879]
ch0 : [2460, 2316, 2422, 2458, 2476, 2457, 2409, 2410, 2529, 2183]
ch1 : [3192, 3192, 3189, 3192, 3188, 3194, 3190, 3194, 3192, 3196]
ch2 : [1080, 1100, 1100, 1093, 1108, 1104, 1101, 1101, 1082, 1083]
ch3 : [2882, 2878, 2883, 2884, 2883, 2877, 2879, 2883, 2884, 2879]
ch0 : [2379, 2436, 2476, 2502, 2431, 2448, 2525, 2521, 2310, 2431]
ch1 : [3197, 3194, 3195, 3196, 3183, 3195, 3191, 3192, 3197, 3196]
ch2 : [1110, 1111, 1108, 1101, 1106, 1100, 1092, 1083, 1099, 1110]
ch3 : [2871, 2888, 2881, 2882, 2880, 2869, 2888, 2882, 2883, 2878]
ch0 : [2461, 2479, 2462, 2411, 2493, 2309, 2428, 2437, 2469, 2467]
ch1 : [3190, 3192, 3192, 3180, 3191, 3191, 3193, 3196, 3193, 3192]
ch2 : [1111, 1104, 1097, 1091, 1084, 1103, 1095, 1109, 1108, 1107]
ch3 : [2886, 2884, 2882, 2886, 2882, 2884, 2883, 2884, 2881, 2882]
ch0 : [2440, 2397, 2508, 2341, 2335, 2449, 2491, 2515, 2497, 2444]
ch1 : [3192, 3196, 3192, 3195, 3193, 3194, 3187, 3196, 3190, 3180]
ch2 : [1104, 1108, 1085, 1087, 1111, 1116, 1114, 1105, 1110, 1105]
ch3 : [2884, 2889, 2884, 2886, 2886, 2887, 2887, 2885, 2895, 2884]
ch0 : [2524, 2506, 2292, 2428, 2467, 2485, 2486, 2454, 2390, 2528]
ch1 : [3191, 3191, 3195, 3189, 3193, 3190, 3191, 3193, 3195, 3194]
ch2 : [1099, 1086, 1100, 1111, 1112, 1110, 1111, 1104, 1105, 1085]
ch3 : [2888, 2884, 2888, 2889, 2884, 2895, 2889, 2897, 2885, 2886]
ch0 : [2399, 2338, 2458, 2468, 2507, 2458, 2440, 2524, 2485, 2273]
ch1 : [3190, 3192, 3195, 3192, 3193, 3196, 3197, 3195, 3193, 3194]
ch2 : [1084, 1111, 1116, 1112, 1103, 1103, 1103, 1099, 1085, 1091]
ch3 : [2887, 2893, 2887, 2887, 2887, 2885, 2885, 2886, 2886, 2890]
ch0 : [2417, 2447, 2436, 2466, 2450, 2441, 2527, 2366, 2287, 2412]
ch1 : [3196, 3192, 3193, 3182, 3190, 3194, 3195, 3192, 3191, 3191]
ch2 : [1120, 1112, 1112, 1106, 1102, 1107, 1085, 1074, 1112, 1113]
ch3 : [2888, 2892, 2890, 2890, 2898, 2889, 2889, 2886, 2890, 2890]
ch0 : [2459, 2510, 2465, 2425, 2524, 2474, 2252, 2404, 2441, 2431]
ch1 : [3191, 3190, 3195, 3190, 3193, 3194, 3193, 3194, 3193, 3180]
ch2 : [1121, 1107, 1099, 1105, 1109, 1088, 1093, 1108, 1109, 1107]
ch3 : [2891, 2890, 2887, 2889, 2896, 2890, 2890, 2892, 2891, 2892]
ch0 : [2462, 2448, 2401, 2520, 2477, 2295, 2407, 2464, 2512, 2474]
ch1 : [3194, 3193, 3193, 3196, 3193, 3192, 3194, 3193, 3193, 3193]
ch2 : [1107, 1110, 1105, 1087, 1080, 1104, 1116, 1114, 1109, 1107]
ch3 : [2889, 2881, 2888, 2876, 2889, 2893, 2893, 2891, 2893, 2888]
ch0 : [2457, 2522, 2493, 2218, 2360, 2445, 2481, 2513, 2494, 2428]
ch1 : [3194, 3191, 3190, 3192, 3193, 3196, 3193, 3196, 3191, 3196]
ch2 : [1104, 1102, 1084, 1084, 1109, 1110, 1108, 1106, 1103, 1105]
ch3 : [2887, 2890, 2889, 2893, 2894, 2891, 2893, 2893, 2891, 2892]
ch0 : [2513, 2441, 2283, 2400, 2470, 2517, 2493, 2468, 2519, 2500]
ch1 : [3191, 3194, 3197, 3191, 3196, 3191, 3192, 3191, 3192, 3194]
ch2 : [1085, 1082, 1106, 1113, 1111, 1103, 1097, 1105, 1101, 1083]
ch3 : [2889, 2877, 2896, 2895, 2894, 2887, 2890, 2891, 2887, 2889]
ch0 : [2255, 2379, 2459, 2515, 2507, 2423, 2376, 2522, 2489, 2356]
ch1 : [3195, 3194, 3193, 3193, 3194, 3194, 3193, 3196, 3193, 3194]
ch2 : [1084, 1111, 1111, 1110, 1108, 1103, 1103, 1092, 1080, 1101]
ch3 : [2887, 2888, 2891, 2890, 2895, 2896, 2893, 2890, 2887, 2890]
ch0 : [2436, 2343, 2492, 2548, 2548, 2356, 2123, 2506, 2526, 2530]
ch1 : [3191, 3194, 3195, 3196, 3190, 3193, 3194, 3192, 3193, 3190]
ch2 : [1105, 1105, 1108, 1100, 1099, 1079, 1104, 1113, 1111, 1107]
ch3 : [2878, 2879, 2878, 2866, 2857, 2858, 2864, 2876, 2875, 2884]
ch0 : [2511, 2382, 2407, 2525, 2416, 2356, 2393, 2390, 2511, 2505]
ch1 : [3191, 3194, 3190, 3189, 3192, 3191, 3192, 3193, 3192, 3197]
ch2 : [1099, 1100, 1100, 1081, 1083, 1104, 1105, 1105, 1101, 1101]
ch3 : [2879, 2882, 2881, 2879, 2877, 2880, 2885, 2892, 2886, 2885]
ch0 : [2431, 2416, 2468, 2269, 2301, 2322, 2431, 2495, 2368, 2293]
ch1 : [3190, 3195, 3177, 3192, 3192, 3197, 3193, 3190, 3191, 3201]
ch2 : [1096, 1088, 1075, 1086, 1091, 1102, 1099, 1102, 1093, 1097]
ch3 : [2886, 2889, 2887, 2897, 2888, 2880, 2882, 2873, 2874, 2884]
ch0 : [2493, 2243, 2235, 2502, 2502, 2437, 2202, 2209, 2485, 2502]
ch1 : [3191, 3194, 3196, 3190, 3183, 3196, 3195, 3195, 3197, 3191]
ch2 : [1077, 1075, 1099, 1099, 1100, 1098, 1092, 1096, 1090, 1074]
ch3 : [2883, 2878, 2892, 2884, 2872, 2872, 2876, 2878, 2881, 2874]
ch0 : [2327, 2481, 2274, 2486, 2479, 2233, 2329, 2495, 2460, 2368]
ch1 : [3190, 3194, 3191, 3193, 3188, 3198, 3198, 3194, 3197, 3190]
ch2 : [1092, 1105, 1106, 1103, 1094, 1099, 1097, 1079, 1077, 1098]
ch3 : [2872, 2875, 2870, 2871, 2875, 2872, 2871, 2873, 2876, 2878]
ch0 : [2342, 2428, 2445, 2359, 2356, 2492, 2476, 2345, 2502, 2368]
ch1 : [3193, 3196, 3200, 3195, 3195, 3191, 3191, 3196, 3196, 3197]
ch2 : [1098, 1101, 1101, 1099, 1089, 1096, 1074, 1094, 1107, 1104]
ch3 : [2875, 2868, 2867, 2875, 2875, 2867, 2869, 2871, 2858, 2866]
ch0 : [2242, 2008, 2256, 2485, 2511, 2511, 2299, 2306, 2434, 2494]
ch1 : [3189, 3197, 3193, 3195, 3188, 3198, 3192, 3199, 3188, 3195]
ch2 : [1098, 1092, 1100, 1100, 1084, 1081, 1100, 1105, 1108, 1104]
ch3 : [2866, 2860, 2863, 2858, 2852, 2864, 2864, 2856, 2855, 2850]
ch0 : [2388, 2268, 2495, 2479, 2276, 2390, 2366, 2361, 2447, 2367]
ch1 : [3193, 3205, 3191, 3192, 3194, 3187, 3193, 3196, 3197, 3193]
ch2 : [1089, 1103, 1099, 1086, 1092, 1116, 1111, 1108, 1103, 1105]
ch3 : [2850, 2849, 2844, 2840, 2847, 2857, 2853, 2844, 2830, 2832]
ch0 : [2387, 2492, 2399, 2208, 2277, 2266, 2399, 2475, 2482, 2489]
ch1 : [3192, 3191, 3193, 3196, 3190, 3197, 3193, 3191, 3189, 3194]
ch2 : [1105, 1098, 1088, 1111, 1114, 1118, 1109, 1107, 1111, 1107]
ch3 : [2836, 2831, 2823, 2835, 2836, 2835, 2828, 2823, 2821, 2820]
ch0 : [2313, 1952, 2316, 2425, 2412, 2446, 2370, 2374, 2474, 2411]
ch1 : [3212, 3196, 3196, 3192, 3195, 3191, 3195, 3192, 3187, 3186]
ch2 : [1088, 1099, 1119, 1119, 1115, 1109, 1110, 1115, 1096, 1095]
ch3 : [2812, 2820, 2810, 2826, 2825, 2820, 2812, 2814, 2812, 2814]
ch0 : [2293, 2379, 2286, 2307, 2402, 2359, 2471, 2423, 2102, 2350]
ch1 : [3196, 3196, 3201, 3194, 3193, 3196, 3193, 3192, 3196, 3207]
ch2 : [1118, 1117, 1117, 1118, 1107, 1112, 1116, 1087, 1096, 1127]
ch3 : [2815, 2816, 2816, 2817, 2816, 2802, 2809, 2807, 2810, 2812]
ch0 : [2331, 2251, 2272, 2426, 2447, 2405, 2223, 2252, 2459, 2359]
ch1 : [3190, 3195, 3191, 3200, 3197, 3192, 3191, 3194, 3196, 3197]
ch2 : [1116, 1116, 1109, 1118, 1112, 1095, 1092, 1110, 1115, 1109]
ch3 : [2811, 2801, 2799, 2797, 2795, 2791, 2786, 2793, 2798, 2796]
ch0 : [2347, 2387, 2365, 2354, 2284, 2078, 2379, 2286, 2382, 2456]
ch1 : [3196, 3191, 3192, 3200, 3194, 3196, 3194, 3193, 3193, 3196]
ch2 : [1108, 1103, 1104, 1107, 1079, 1083, 1107, 1109, 1100, 1095]
ch3 : [2781, 2784, 2780, 2778, 2776, 2774, 2783, 2785, 2787, 2781]
ch0 : [2402, 2320, 2479, 2423, 2255, 2374, 2394, 2399, 2373, 2293]
ch1 : [3192, 3198, 3189, 3195, 3192, 3193, 3195, 3194, 3194, 3191]
ch2 : [1097, 1097, 1089, 1074, 1093, 1103, 1102, 1099, 1096, 1101]
ch3 : [2781, 2793, 2783, 2787, 2788, 2789, 2789, 2790, 2786, 2791]
ch0 : [2312, 2459, 2112, 2333, 2284, 2283, 2345, 2263, 2309, 2458]
ch1 : [3196, 3193, 3202, 3194, 3195, 3194, 3191, 3190, 3192, 3194]
ch2 : [1108, 1078, 1083, 1108, 1111, 1108, 1099, 1103, 1107, 1100]
ch3 : [2794, 2790, 2782, 2792, 2786, 2776, 2774, 2774, 2764, 2778]
ch0 : [2461, 2208, 2128, 2381, 2460, 2439, 2221, 2146, 2355, 2280]
ch1 : [3190, 3196, 3193, 3193, 3197, 3196, 3189, 3199, 3190, 3186]
ch2 : [1085, 1100, 1118, 1117, 1117, 1112, 1110, 1115, 1091, 1093]
ch3 : [2778, 2787, 2770, 2767, 2773, 2775, 2768, 2769, 2768, 2763]
ch0 : [2344, 2297, 2401, 2443, 2372, 2196, 2381, 2438, 2256, 2377]
ch1 : [3197, 3193, 3190, 3196, 3191, 3199, 3193, 3192, 3187, 3196]
ch2 : [1119, 1123, 1119, 1114, 1113, 1110, 1109, 1113, 1114, 1131]
ch3 : [2768, 2770, 2773, 2768, 2767, 2766, 2772, 2775, 2774, 2767]
ch0 : [2339, 2345, 2299, 2303, 2273, 2445, 2202, 2217, 2360, 2334]
ch1 : [3199, 3183, 3196, 3193, 3193, 3192, 3197, 3194, 3195, 3195]
ch2 : [1126, 1127, 1124, 1123, 1116, 1104, 1101, 1133, 1131, 1131]
ch3 : [2773, 2769, 2770, 2771, 2773, 2768, 2757, 2772, 2769, 2765]
ch0 : [2287, 2291, 2329, 2441, 2447, 2220, 2214, 2282, 2323, 2420]
ch1 : [3188, 3196, 3196, 3187, 3193, 3196, 3187, 3190, 3197, 3197]
ch2 : [1126, 1121, 1125, 1118, 1099, 1116, 1126, 1126, 1124, 1120]
ch3 : [2768, 2764, 2765, 2762, 2763, 2772, 2766, 2766, 2764, 2766]
ch0 : [2223, 2301, 2404, 2248, 2206, 2314, 2343, 2375, 2314, 2324]
ch1 : [3191, 3193, 3196, 3194, 3201, 3193, 3199, 3196, 3190, 3196]
ch2 : [1116, 1120, 1104, 1092, 1124, 1130, 1122, 1115, 1119, 1114]
ch3 : [2762, 2768, 2763, 2772, 2766, 2773, 2770, 2770, 2768, 2769]
ch0 : [2433, 2400, 2120, 2276, 2302, 2275, 2311, 2304, 2250, 2427]
ch1 : [3193, 3191, 3195, 3195, 3194, 3194, 3191, 3196, 3195, 3190]
ch2 : [1120, 1095, 1106, 1121, 1123, 1121, 1104, 1113, 1112, 1098]
ch3 : [2768, 2773, 2777, 2770, 2775, 2767, 2773, 2768, 2766, 2770]
ch0 : [2350, 2144, 2273, 2305, 2378, 2322, 2311, 2431, 2412, 2124]
ch1 : [3195, 3196, 3192, 3197, 3192, 3193, 3196, 3193, 3195, 3197]
ch2 : [1086, 1117, 1120, 1131, 1115, 1107, 1110, 1109, 1086, 1099]
ch3 : [2767, 2772, 2775, 2770, 2772, 2767, 2771, 2771, 2770, 2776]
ch0 : [2254, 2314, 2343, 2364, 2333, 2270, 2424, 2358, 2194, 2334]
ch1 : [3195, 3194, 3193, 3191, 3195, 3192, 3200, 3199, 3195, 3195]
ch2 : [1118, 1119, 1112, 1117, 1105, 1116, 1097, 1074, 1117, 1124]
ch3 : [2773, 2772, 2771, 2774, 2773, 2774, 2780, 2778, 2779, 2784]
ch0 : [2382, 2428, 2366, 2335, 2440, 2423, 2175, 2321, 2390, 2363]
ch1 : [3195, 3184, 3190, 3192, 3196, 3187, 3195, 3197, 3196, 3192]
ch2 : [1120, 1117, 1112, 1110, 1111, 1096, 1102, 1118, 1120, 1117]
ch3 : [2782, 2778, 2776, 2780, 2780, 2782, 2785, 2784, 2786, 2786]
ch0 : [2386, 2363, 2312, 2450, 2344, 2207, 2351, 2372, 2444, 2372]
ch1 : [3192, 3192, 3194, 3193, 3197, 3195, 3191, 3191, 3187, 3194]
ch2 : [1127, 1117, 1124, 1096, 1089, 1118, 1122, 1131, 1125, 1106]
ch3 : [2787, 2785, 2787, 2788, 2789, 2794, 2793, 2796, 2795, 2790]
ch0 : [2454, 2399, 2171, 2325, 2376, 2437, 2363, 2340, 2418, 2446]
ch1 : [3192, 3194, 3194, 3197, 3196, 3178, 3191, 3191, 3193, 3192]
ch2 : [1103, 1082, 1109, 1118, 1115, 1111, 1104, 1109, 1108, 1090]
ch3 : [2807, 2805, 2807, 2812, 2810, 2801, 2805, 2810, 2806, 2801]
ch0 : [2165, 2336, 2398, 2372, 2428, 2395, 2391, 2470, 2384, 2219]
ch1 : [3196, 3193, 3190, 3195, 3192, 3192, 3194, 3191, 3196, 3191]
ch2 : [1093, 1113, 1116, 1113, 1109, 1111, 1102, 1094, 1081, 1109]
ch3 : [2812, 2811, 2812, 2811, 2813, 2809, 2810, 2812, 2813, 2817]
ch0 : [2387, 2419, 2484, 2424, 2406, 2434, 2466, 2274, 2364, 2428]
ch1 : [3192, 3190, 3196, 3193, 3196, 3193, 3187, 3200, 3191, 3193]
ch2 : [1119, 1111, 1109, 1104, 1105, 1107, 1083, 1094, 1108, 1113]
ch3 : [2820, 2816, 2824, 2812, 2812, 2814, 2816, 2819, 2817, 2820]
ch0 : [2416, 2427, 2400, 2396, 2489, 2461, 2187, 2366, 2404, 2486]
ch1 : [3194, 3190, 3204, 3192, 3194, 3194, 3195, 3194, 3194, 3192]
ch2 : [1112, 1121, 1106, 1101, 1096, 1082, 1105, 1118, 1112, 1111]
ch3 : [2818, 2820, 2821, 2819, 2818, 2817, 2823, 2823, 2824, 2821]
ch0 : [2374, 2365, 2360, 2483, 2324, 2321, 2410, 2375, 2412, 2375]
ch1 : [3193, 3191, 3189, 3192, 3189, 3195, 3192, 3197, 3192, 3192]
ch2 : [1097, 1102, 1099, 1083, 1084, 1107, 1107, 1109, 1107, 1098]
ch3 : [2820, 2820, 2823, 2823, 2827, 2820, 2824, 2824, 2825, 2824]
ch0 : [2365, 2486, 2463, 2135, 2336, 2384, 2465, 2394, 2355, 2341]
ch1 : [3188, 3191, 3195, 3192, 3191, 3180, 3193, 3196, 3194, 3193]
ch2 : [1101, 1093, 1076, 1098, 1108, 1109, 1099, 1093, 1093, 1099]
ch3 : [2823, 2828, 2824, 2834, 2829, 2830, 2829, 2826, 2822, 2833]
ch0 : [2446, 2332, 2284, 2357, 2356, 2391, 2350, 2346, 2468, 2378]
ch1 : [3193, 3191, 3194, 3193, 3193, 3196, 3193, 3197, 3194, 3196]
ch2 : [1081, 1075, 1098, 1106, 1098, 1097, 1093, 1094, 1087, 1070]
ch3 : [2828, 2833, 2834, 2831, 2833, 2832, 2831, 2832, 2832, 2836]
ch0 : [2129, 2303, 2360, 2372, 2400, 2336, 2327, 2458, 2380, 2252]
ch1 : [3195, 3192, 3195, 3193, 3190, 3196, 3196, 3187, 3196, 3193]
ch2 : [1087, 1102, 1104, 1096, 1098, 1095, 1097, 1078, 1067, 1095]
ch3 : [2833, 2834, 2835, 2837, 2830, 2833, 2834, 2819, 2837, 2836]
ch0 : [2353, 2347, 2369, 2362, 2341, 2460, 2442, 2093, 2304, 2349]
ch1 : [3193, 3196, 3193, 3192, 3192, 3194, 3195, 3196, 3194, 3196]
ch2 : [1101, 1110, 1096, 1089, 1096, 1092, 1067, 1090, 1097, 1100]
ch3 : [2840, 2836, 2834, 2836, 2834, 2835, 2833, 2835, 2840, 2840]
ch0 : [2374, 2394, 2345, 2322, 2455, 2359, 2258, 2357, 2361, 2385]
ch1 : [3197, 3191, 3196, 3193, 3197, 3192, 3192, 3196, 3195, 3195]
ch2 : [1098, 1092, 1091, 1093, 1076, 1072, 1090, 1105, 1097, 1095]
ch3 : [2836, 2834, 2836, 2834, 2839, 2836, 2838, 2838, 2837, 2837]
ch0 : [2368, 2359, 2475, 2455, 2084, 2325, 2378, 2395, 2428, 2345]
ch1 : [3196, 3189, 3194, 3187, 3195, 3197, 3193, 3193, 3191, 3191]
ch2 : [1097, 1089, 1091, 1068, 1082, 1102, 1103, 1098, 1079, 1094]
ch3 : [2837, 2839, 2837, 2840, 2836, 2840, 2841, 2842, 2836, 2835]
ch0 : [2373, 2460, 2422, 2282, 2385, 2391, 2414, 2409, 2372, 2466]
ch1 : [3196, 3190, 3191, 3187, 3187, 3189, 3196, 3195, 3196, 3193]
ch2 : [1094, 1073, 1076, 1092, 1098, 1098, 1095, 1091, 1091, 1093]
ch3 : [2837, 2838, 2838, 2843, 2844, 2837, 2840, 2831, 2828, 2840]
ch0 : [2452, 2114, 2348, 2421, 2411, 2442, 2394, 2397, 2476, 2427]
ch1 : [3191, 3199, 3198, 3190, 3192, 3193, 3195, 3193, 3195, 3193]
ch2 : [1064, 1090, 1106, 1101, 1097, 1092, 1091, 1093, 1080, 1071]
ch3 : [2838, 2840, 2830, 2845, 2843, 2837, 2835, 2834, 2840, 2842]
ch0 : [2286, 2410, 2420, 2440, 2407, 2367, 2389, 2487, 2118, 2350]
ch1 : [3195, 3191, 3192, 3195, 3191, 3192, 3192, 3196, 3200, 3200]
ch2 : [1098, 1101, 1095, 1094, 1096, 1092, 1092, 1071, 1076, 1095]
ch3 : [2847, 2842, 2841, 2835, 2844, 2848, 2839, 2850, 2843, 2848]
ch0 : [2415, 2423, 2457, 2404, 2391, 2493, 2429, 2280, 2402, 2415]
ch1 : [3195, 3189, 3196, 3191, 3194, 3195, 3193, 3200, 3193, 3193]
ch2 : [1108, 1098, 1084, 1095, 1097, 1082, 1077, 1091, 1104, 1104]
ch3 : [2846, 2843, 2841, 2837, 2842, 2845, 2847, 2847, 2848, 2847]
ch0 : [2439, 2409, 2377, 2346, 2467, 2123, 2323, 2403, 2414, 2478]
ch1 : [3189, 3195, 3193, 3194, 3192, 3198, 3198, 3187, 3195, 3200]
ch2 : [1096, 1097, 1100, 1099, 1077, 1080, 1100, 1106, 1102, 1098]
ch3 : [2848, 2846, 2839, 2849, 2842, 2844, 2848, 2850, 2840, 2847]
ch0 : [2387, 2384, 2491, 2450, 2261, 2379, 2398, 2427, 2414, 2358]
ch1 : [3193, 3192, 3192, 3193, 3192, 3193, 3192, 3194, 3193, 3198]
ch2 : [1090, 1099, 1086, 1075, 1089, 1105, 1099, 1102, 1097, 1109]
ch3 : [2847, 2841, 2848, 2850, 2854, 2853, 2850, 2852, 2849, 2848]
ch0 : [2325, 2479, 2186, 2255, 2365, 2386, 2424, 2337, 2373, 2469]
ch1 : [3194, 3193, 3194, 3191, 3193, 3192, 3194, 3192, 3193, 3193]
ch2 : [1099, 1077, 1075, 1107, 1107, 1102, 1096, 1094, 1096, 1089]
ch3 : [2852, 2847, 2847, 2853, 2853, 2853, 2850, 2857, 2850, 2849]
ch0 : [2431, 2212, 2356, 2369, 2397, 2387, 2354, 2300, 2463, 2282]
ch1 : [3191, 3196, 3194, 3193, 3195, 3192, 3190, 3193, 3189, 3188]
ch2 : [1071, 1085, 1103, 1103, 1102, 1095, 1099, 1097, 1081, 1074]
ch3 : [2852, 2846, 2856, 2857, 2854, 2852, 2851, 2857, 2852, 2853]
ch0 : [2275, 2376, 2400, 2449, 2375, 2381, 2470, 2457, 2229, 2373]
ch1 : [3197, 3192, 3190, 3193, 3194, 3193, 3193, 3191, 3196, 3199]
ch2 : [1102, 1102, 1101, 1096, 1093, 1096, 1084, 1081, 1097, 1104]
ch3 : [2850, 2854, 2855, 2852, 2850, 2851, 2854, 2851, 2856, 2851]
ch0 : [2400, 2428, 2426, 2386, 2355, 2455, 2350, 2301, 2395, 2421]
ch1 : [3194, 3192, 3191, 3203, 3195, 3191, 3191, 3194, 3192, 3196]
ch2 : [1109, 1101, 1101, 1096, 1101, 1081, 1076, 1105, 1109, 1096]
ch3 : [2855, 2851, 2853, 2855, 2855, 2854, 2853, 2868, 2859, 2856]
ch0 : [2461, 2401, 2406, 2487, 2472, 2236, 2386, 2415, 2419, 2448]
ch1 : [3200, 3187, 3191, 3188, 3195, 3195, 3196, 3192, 3186, 3187]
ch2 : [1100, 1088, 1097, 1090, 1077, 1087, 1102, 1102, 1098, 1092]
ch3 : [2853, 2850, 2852, 2855, 2858, 2858, 2854, 2857, 2860, 2855]
ch0 : [2402, 2341, 2475, 2389, 2286, 2400, 2436, 2484, 2420, 2406]
ch1 : [3193, 3194, 3192, 3188, 3204, 3192, 3196, 3193, 3186, 3202]
ch2 : [1100, 1095, 1086, 1069, 1105, 1106, 1102, 1097, 1096, 1097]
ch3 : [2858, 2860, 2857, 2854, 2859, 2861, 2859, 2857, 2855, 2857]
ch0 : [2490, 2491, 2216, 2388, 2417, 2409, 2423, 2407, 2382, 2490]
ch1 : [3192, 3193, 3200, 3192, 3191, 3193, 3194, 3196, 3189, 3190]
ch2 : [1087, 1074, 1088, 1100, 1108, 1099, 1098, 1096, 1100, 1097]
ch3 : [2853, 2857, 2862, 2870, 2860, 2859, 2857, 2859, 2861, 2860]
ch0 : [2410, 2267, 2418, 2439, 2487, 2427, 2422, 2502, 2492, 2215]
ch1 : [3192, 3194, 3193, 3193, 3193, 3188, 3191, 3195, 3191, 3194]
ch2 : [1072, 1101, 1109, 1104, 1099, 1097, 1095, 1097, 1076, 1082]
ch3 : [2858, 2864, 2863, 2864, 2861, 2854, 2860, 2857, 2861, 2862]
ch0 : [2477, 2503, 2465, 2419, 2510, 2514, 2216, 2391, 2451, 2447]
ch1 : [3194, 3193, 3194, 3192, 3199, 3192, 3190, 3191, 3192, 3192]
ch2 : [1106, 1102, 1098, 1098, 1101, 1079, 1096, 1111, 1109, 1107]
ch3 : [2862, 2865, 2855, 2864, 2858, 2863, 2865, 2864, 2865, 2862]
ch0 : [2472, 2435, 2396, 2520, 2443, 2270, 2423, 2454, 2510, 2456]
ch1 : [3194, 3195, 3193, 3188, 3194, 3191, 3195, 3188, 3190, 3192]
ch2 : [1104, 1086, 1095, 1084, 1078, 1093, 1111, 1110, 1104, 1098]
ch3 : [2861, 2860, 2862, 2861, 2853, 2868, 2864, 2860, 2863, 2861]
ch0 : [2411, 2467, 2513, 2235, 2386, 2440, 2443, 2454, 2415, 2413]
ch1 : [3194, 3194, 3190, 3198, 3193, 3192, 3193, 3192, 3191, 3191]
ch2 : [1099, 1103, 1080, 1085, 1110, 1112, 1109, 1093, 1100, 1105]
ch3 : [2861, 2863, 2867, 2868, 2863, 2866, 2867, 2865, 2863, 2866]
ch0 : [2516, 2448, 2250, 2418, 2436, 2511, 2454, 2403, 2429, 2497]
ch1 : [3195, 3192, 3198, 3192, 3194, 3191, 3191, 3190, 3194, 3193]
ch2 : [1096, 1078, 1108, 1101, 1110, 1092, 1104, 1088, 1105, 1082]
ch3 : [2863, 2863, 2868, 2869, 2873, 2867, 2864, 2865, 2868, 2856]
ch0 : [2322, 2377, 2431, 2437, 2474, 2425, 2435, 2511, 2496, 2246]
ch1 : [3185, 3193, 3189, 3193, 3193, 3189, 3195, 3194, 3207, 3197]
ch2 : [1086, 1108, 1114, 1102, 1109, 1105, 1103, 1094, 1082, 1089]
ch3 : [2867, 2876, 2866, 2868, 2865, 2868, 2863, 2865, 2865, 2868]
ch0 : [2402, 2447, 2491, 2472, 2422, 2420, 2506, 2361, 2375, 2437]
ch1 : [3190, 3204, 3192, 3193, 3182, 3191, 3192, 3187, 3196, 3190]
ch2 : [1113, 1112, 1109, 1103, 1101, 1106, 1082, 1088, 1116, 1112]
ch3 : [2869, 2869, 2872, 2867, 2867, 2863, 2870, 2869, 2870, 2867]
ch0 : [2449, 2464, 2428, 2439, 2517, 2503, 2214, 2410, 2434, 2507]
ch1 : [3198, 3194, 3191, 3200, 3190, 3190, 3193, 3195, 3192, 3186]
ch2 : [1111, 1111, 1112, 1107, 1098, 1081, 1086, 1117, 1116, 1110]
ch3 : [2870, 2866, 2867, 2868, 2871, 2864, 2869, 2869, 2871, 2868]
ch0 : [2454, 2430, 2423, 2513, 2440, 2380, 2441, 2442, 2468, 2447]
ch1 : [3189, 3194, 3188, 3191, 3200, 3194, 3206, 3192, 3196, 3195]
ch2 : [1104, 1104, 1105, 1089, 1085, 1109, 1113, 1112, 1107, 1106]
ch3 : [2866, 2866, 2865, 2868, 2870, 2871, 2869, 2868, 2877, 2865]
ch0 : [2434, 2510, 2456, 2192, 2397, 2445, 2465, 2454, 2427, 2421]
ch1 : [3190, 3191, 3193, 3198, 3193, 3194, 3190, 3196, 3187, 3191]
ch2 : [1099, 1103, 1080, 1094, 1115, 1117, 1108, 1101, 1102, 1096]
ch3 : [2869, 2869, 2867, 2870, 2872, 2868, 2855, 2868, 2877, 2869]
ch0 : [2517, 2486, 2356, 2439, 2443, 2466, 2444, 2463, 2512, 2478]
ch1 : [3191, 3194, 3194, 3190, 3193, 3192, 3180, 3195, 3190, 3183]
ch2 : [1086, 1080, 1107, 1111, 1109, 1110, 1103, 1102, 1105, 1080]
ch3 : [2872, 2873, 2872, 2879, 2874, 2868, 2873, 2867, 2871, 2872]
ch0 : [2474, 2491, 2516, 2472, 2426, 2528, 2482, 2158, 2369, 2456]
ch1 : [3193, 3195, 3196, 3189, 3183, 3191, 3198, 3193, 3191, 3191]
ch2 : [1111, 1108, 1108, 1104, 1102, 1100, 1083, 1088, 1117, 1113]
ch3 : [2871, 2868, 2872, 2867, 2870, 2871, 2867, 2868, 2875, 2875]
ch0 : [2515, 2536, 2431, 2402, 2523, 2515, 2353, 2437, 2457, 2463]
ch1 : [3191, 3193, 3187, 3200, 3192, 3189, 3193, 3194, 3193, 3192]
ch2 : [1107, 1096, 1110, 1103, 1086, 1081, 1105, 1109, 1109, 1105]
ch3 : [2874, 2867, 2869, 2869, 2870, 2872, 2873, 2869, 2872, 2870]
ch0 : [2454, 2387, 2517, 2474, 2164, 2480, 2514, 2533, 2480, 2329]
ch1 : [3196, 3193, 3196, 3187, 3195, 3196, 3190, 3191, 3193, 3197]
ch2 : [1108, 1102, 1099, 1078, 1092, 1114, 1115, 1106, 1098, 1101]
ch3 : [2876, 2871, 2872, 2869, 2870, 2877, 2874, 2867, 2866, 2869]
ch0 : [2320, 2534, 2529, 2362, 2425, 2498, 2527, 2431, 2496, 2457]
ch1 : [3196, 3191, 3183, 3194, 3192, 3192, 3190, 3183, 3189, 3193]
ch2 : [1102, 1090, 1095, 1103, 1115, 1111, 1109, 1104, 1104, 1106]
ch3 : [2868, 2866, 2865, 2877, 2874, 2872, 2864, 2862, 2865, 2848]
ch0 : [2537, 2109, 2187, 2421, 2517, 2523, 2443, 2340, 2496, 2515]
ch1 : [3184, 3200, 3196, 3197, 3192, 3193, 3192, 3181, 3197, 3190]
ch2 : [1081, 1089, 1114, 1112, 1108, 1102, 1103, 1102, 1091, 1086]
ch3 : [2847, 2861, 2869, 2864, 2849, 2840, 2844, 2861, 2859, 2855]
ch0 : [2530, 2485, 2362, 2269, 2431, 2375, 2500, 2466, 2262, 2475]
ch1 : [3191, 3194, 3188, 3192, 3201, 3192, 3190, 3193, 3193, 3200]
ch2 : [1105, 1107, 1107, 1107, 1103, 1097, 1107, 1079, 1084, 1109]
ch3 : [2854, 2861, 2852, 2852, 2859, 2864, 2865, 2865, 2858, 2859]
ch0 : [2523, 2437, 2455, 2421, 2436, 2535, 2331, 2225, 2302, 2457]
ch1 : [3196, 3196, 3193, 3194, 3197, 3191, 3196, 3197, 3196, 3179]
ch2 : [1119, 1106, 1098, 1110, 1097, 1082, 1074, 1095, 1105, 1102]
ch3 : [2863, 2873, 2869, 2864, 2860, 2867, 2876, 2872, 2864, 2854]
ch0 : [2511, 2529, 2390, 2255, 2375, 2092, 2401, 2297, 2298, 2474]
ch1 : [3188, 3194, 3195, 3193, 3195, 3197, 3193, 3193, 3197, 3193]
ch2 : [1101, 1095, 1088, 1094, 1072, 1071, 1102, 1102, 1098, 1092]
ch3 : [2863, 2862, 2868, 2868, 2860, 2862, 2867, 2870, 2876, 2862]
ch0 : [2509, 2518, 2519, 2381, 2235, 2456, 2267, 2310, 2489, 2476]
ch1 : [3193, 3195, 3193, 3194, 3198, 3194, 3204, 3195, 3195, 3200]
ch2 : [1087, 1094, 1076, 1068, 1088, 1109, 1103, 1098, 1098, 1098]
ch3 : [2850, 2849, 2854, 2867, 2878, 2873, 2867, 2867, 2855, 2861]
ch0 : [2414, 2516, 2227, 2164, 2385, 2487, 2504, 2500, 2373, 2502]
ch1 : [3193, 3193, 3196, 3192, 3183, 3187, 3187, 3191, 3187, 3196]
ch2 : [1096, 1071, 1071, 1087, 1104, 1102, 1094, 1099, 1093, 1084]
ch3 : [2864, 2855, 2861, 2865, 2860, 2865, 2859, 2854, 2859, 2869]
ch0 : [2330, 2493, 2455, 2445, 2399, 2502, 2512, 2305, 2135, 2494]
ch1 : [3191, 3191, 3197, 3193, 3192, 3193, 3194, 3196, 3197, 3195]
ch2 : [1103, 1090, 1102, 1098, 1096, 1096, 1090, 1075, 1089, 1106]
ch3 : [2851, 2857, 2858, 2845, 2851, 2838, 2839, 2840, 2840, 2836]
ch0 : [2496, 2443, 2392, 2382, 2412, 2459, 2305, 2309, 2489, 2432]
ch1 : [3191, 3193, 3193, 3187, 3192, 3192, 3196, 3192, 3192, 3197]
ch2 : [1105, 1101, 1096, 1098, 1099, 1077, 1075, 1104, 1111, 1104]
ch3 : [2842, 2828, 2827, 2837, 2840, 2835, 2829, 2822, 2829, 2835]
ch0 : [2418, 2305, 2387, 2501, 2506, 2113, 2259, 2401, 2437, 2413]
ch1 : [3190, 3193, 3193, 3191, 3191, 3194, 3197, 3183, 3194, 3197]
ch2 : [1096, 1097, 1101, 1099, 1083, 1092, 1105, 1108, 1110, 1102]
ch3 : [2828, 2821, 2820, 2811, 2810, 2811, 2824, 2825, 2826, 2816]
ch0 : [2363, 2446, 2503, 2372, 2167, 2320, 2439, 2505, 2311, 2387]
ch1 : [3192, 3193, 3192, 3192, 3191, 3194, 3191, 3191, 3196, 3194]
ch2 : [1106, 1116, 1084, 1079, 1107, 1115, 1109, 1106, 1102, 1098]
ch3 : [2813, 2818, 2809, 2809, 2814, 2823, 2809, 2812, 2804, 2809]
ch0 : [2507, 2478, 2116, 2255, 2399, 2383, 2432, 2434, 2251, 2405]
ch1 : [3193, 3198, 3194, 3195, 3192, 3194, 3189, 3195, 3185, 3196]
ch2 : [1099, 1083, 1100, 1111, 1113, 1110, 1104, 1104, 1105, 1087]
ch3 : [2807, 2803, 2805, 2811, 2802, 2800, 2800, 2793, 2793, 2791]
ch0 : [2322, 2295, 2422, 2344, 2421, 2391, 2168, 2248, 2403, 2296]
ch1 : [3192, 3190, 3195, 3195, 3192, 3191, 3192, 3189, 3193, 3191]
ch2 : [1077, 1103, 1114, 1109, 1104, 1099, 1094, 1095, 1081, 1090]
ch3 : [2788, 2784, 2781, 2787, 2785, 2780, 2783, 2773, 2765, 2779]
ch0 : [2451, 2396, 2394, 2361, 2364, 2282, 2459, 2329, 2197, 2410]
ch1 : [3193, 3189, 3190, 3191, 3180, 3189, 3188, 3195, 3193, 3190]
ch2 : [1104, 1101, 1089, 1096, 1091, 1089, 1079, 1066, 1098, 1102]
ch3 : [2776, 2781, 2775, 2763, 2768, 2770, 2770, 2766, 2777, 2791]
ch0 : [2440, 2458, 2352, 2330, 2478, 2395, 2020, 2146, 2366, 2378]
ch1 : [3191, 3192, 3197, 3197, 3193, 3190, 3196, 3190, 3195, 3192]
ch2 : [1099, 1094, 1093, 1087, 1093, 1066, 1077, 1090, 1097, 1095]
ch3 : [2777, 2772, 2772, 2772, 2771, 2768, 2770, 2774, 2767, 2767]
ch0 : [2437, 2387, 2234, 2437, 2377, 2157, 2326, 2443, 2425, 2364]
ch1 : [3193, 3193, 3181, 3194, 3191, 3197, 3196, 3186, 3192, 3201]
ch2 : [1088, 1075, 1090, 1082, 1066, 1092, 1105, 1101, 1094, 1092]
ch3 : [2777, 2763, 2768, 2759, 2752, 2756, 2759, 2757, 2751, 2750]
ch0 : [2164, 2341, 2446, 2350, 2284, 2271, 2285, 2366, 2306, 2427]
ch1 : [3196, 3193, 3197, 3200, 3191, 3196, 3193, 3193, 3196, 3191]
ch2 : [1088, 1096, 1077, 1083, 1101, 1102, 1105, 1097, 1103, 1093]
ch3 : [2749, 2748, 2748, 2748, 2753, 2743, 2747, 2744, 2739, 2742]
ch0 : [2456, 2309, 2065, 2281, 2326, 2419, 2377, 2329, 2289, 2396]
ch1 : [3193, 3194, 3197, 3194, 3192, 3194, 3200, 3196, 3193, 3196]
ch2 : [1089, 1074, 1101, 1114, 1112, 1108, 1099, 1109, 1107, 1090]
ch3 : [2740, 2742, 2738, 2741, 2735, 2740, 2734, 2733, 2735, 2736]
ch0 : [2243, 2248, 2324, 2316, 2336, 2308, 2295, 2440, 2344, 2098]
ch1 : [3192, 3194, 3195, 3195, 3196, 3197, 3193, 3191, 3196, 3197]
ch2 : [1092, 1116, 1119, 1120, 1114, 1111, 1116, 1103, 1089, 1112]
ch3 : [2746, 2744, 2740, 2742, 2741, 2737, 2741, 2736, 2725, 2739]
ch0 : [2285, 2320, 2385, 2302, 2301, 2279, 2429, 2261, 2234, 2313]
ch1 : [3191, 3196, 3196, 3195, 3192, 3194, 3191, 3194, 3195, 3194]
ch2 : [1120, 1121, 1120, 1115, 1113, 1118, 1099, 1096, 1119, 1121]
ch3 : [2741, 2743, 2742, 2736, 2736, 2739, 2738, 2740, 2741, 2735]
ch0 : [2318, 2349, 2302, 2306, 2429, 2336, 2088, 2253, 2311, 2382]
ch1 : [3193, 3194, 3188, 3191, 3190, 3196, 3191, 3192, 3196, 3187]
ch2 : [1127, 1119, 1117, 1120, 1114, 1096, 1110, 1127, 1125, 1106]
ch3 : [2740, 2732, 2736, 2734, 2727, 2738, 2739, 2741, 2744, 2725]
ch0 : [2354, 2314, 2299, 2429, 2315, 2246, 2314, 2327, 2352, 2344]
ch1 : [3196, 3192, 3191, 3192, 3193, 3195, 3195, 3194, 3190, 3196]
ch2 : [1116, 1118, 1120, 1104, 1100, 1129, 1130, 1125, 1125, 1136]
ch3 : [2735, 2740, 2735, 2739, 2745, 2748, 2740, 2733, 2743, 2743]
ch0 : [2332, 2434, 2348, 2083, 2297, 2352, 2347, 2378, 2312, 2312]
ch1 : [3197, 3194, 3194, 3194, 3196, 3195, 3188, 3195, 3194, 3204]
ch2 : [1121, 1120, 1102, 1119, 1133, 1131, 1127, 1121, 1120, 1128]
ch3 : [2744, 2744, 2744, 2741, 2751, 2751, 2752, 2747, 2751, 2751]
ch0 : [2433, 2343, 2252, 2340, 2336, 2362, 2339, 2320, 2442, 2362]
ch1 : [3194, 3195, 3194, 3197, 3195, 3192, 3183, 3196, 3193, 3190]
ch2 : [1104, 1104, 1126, 1128, 1128, 1128, 1120, 1125, 1118, 1102]
ch3 : [2756, 2759, 2757, 2761, 2751, 2759, 2758, 2760, 2763, 2751]
ch0 : [2082, 2290, 2342, 2338, 2362, 2325, 2320, 2441, 2390, 2263]
ch1 : [3196, 3194, 3189, 3193, 3181, 3193, 3197, 3193, 3195, 3192]
ch2 : [1113, 1131, 1129, 1122, 1118, 1111, 1117, 1102, 1100, 1117]
ch3 : [2765, 2764, 2773, 2767, 2765, 2765, 2768, 2767, 2775, 2774]
ch0 : [2369, 2362, 2380, 2378, 2349, 2449, 2402, 2087, 2326, 2406]
ch1 : [3189, 3191, 3194, 3192, 3194, 3193, 3191, 3195, 3193, 3192]
ch2 : [1130, 1122, 1120, 1116, 1117, 1116, 1094, 1108, 1125, 1124]
ch3 : [2775, 2773, 2774, 2777, 2772, 2771, 2772, 2777, 2781, 2780]
ch0 : [2412, 2451, 2382, 2380, 2463, 2440, 2298, 2428, 2436, 2465]
ch1 : [3196, 3193, 3193, 3204, 3189, 3194, 3196, 3193, 3196, 3192]
ch2 : [1114, 1107, 1113, 1116, 1098, 1088, 1111, 1119, 1117, 1115]
ch3 : [2777, 2771, 2776, 2777, 2779, 2779, 2784, 2783, 2782, 2782]
ch0 : [2400, 2490, 2437, 2281, 2394, 2391, 2412, 2419, 2353, 2374]
ch1 : [3195, 3189, 3193, 3196, 3197, 3192, 3182, 3195, 3195, 3194]
ch2 : [1108, 1094, 1082, 1107, 1114, 1113, 1110, 1108, 1103, 1102]
ch3 : [2787, 2786, 2790, 2793, 2792, 2790, 2791, 2788, 2775, 2790]
ch0 : [2490, 2065, 2292, 2374, 2373, 2410, 2349, 2358, 2482, 2411]
ch1 : [3189, 3200, 3191, 3193, 3196, 3193, 3189, 3193, 3196, 3191]
ch2 : [1098, 1086, 1131, 1102, 1107, 1103, 1102, 1104, 1090, 1084]
ch3 : [2790, 2790, 2795, 2797, 2797, 2793, 2791, 2793, 2796, 2797]
ch0 : [2223, 2347, 2357, 2386, 2366, 2311, 2300, 2454, 2060, 2278]
ch1 : [3198, 3194, 3196, 3192, 3192, 3193, 3192, 3188, 3191, 3191]
ch2 : [1104, 1109, 1093, 1101, 1100, 1102, 1112, 1056, 1077, 1107]
ch3 : [2802, 2798, 2797, 2795, 2797, 2796, 2797, 2797, 2798, 2798]
ch0 : [2348, 2376, 2407, 2349, 2348, 2460, 2372, 2220, 2349, 2368]
ch1 : [3204, 3196, 3191, 3191, 3188, 3184, 3190, 3191, 3188, 3198]
ch2 : [1119, 1103, 1096, 1091, 1094, 1083, 1074, 1094, 1102, 1099]
ch3 : [2801, 2802, 2794, 2800, 2797, 2802, 2803, 2799, 2802, 2806]
ch0 : [2389, 2388, 2316, 2301, 2441, 2146, 2284, 2366, 2377, 2434]
ch1 : [3191, 3192, 3192, 3194, 3194, 3193, 3196, 3207, 3191, 3194]
ch2 : [1085, 1093, 1094, 1093, 1070, 1071, 1098, 1104, 1094, 1095]
ch3 : [2802, 2811, 2803, 2802, 2801, 2804, 2802, 2810, 2806, 2802]
ch0 : [2335, 2367, 2461, 2397, 2201, 2344, 2383, 2388, 2376, 2335]
ch1 : [3192, 3189, 3196, 3193, 3191, 3191, 3193, 3195, 3196, 3195]
ch2 : [1103, 1092, 1076, 1071, 1084, 1100, 1099, 1098, 1093, 1102]
ch3 : [2801, 2803, 2804, 2809, 2814, 2798, 2802, 2806, 2805, 2803]
ch0 : [2304, 2460, 2254, 2264, 2356, 2388, 2425, 2365, 2375, 2457]
ch1 : [3194, 3189, 3196, 3182, 3188, 3183, 3196, 3189, 3196, 3191]
ch2 : [1093, 1075, 1068, 1101, 1100, 1100, 1096, 1092, 1074, 1089]
ch3 : [2808, 2805, 2806, 2809, 2812, 2810, 2821, 2807, 2808, 2818]
ch0 : [2431, 2219, 2359, 2389, 2411, 2391, 2369, 2331, 2458, 2293]
ch1 : [3200, 3196, 3192, 3194, 3190, 3191, 3191, 3196, 3193, 3195]
ch2 : [1075, 1094, 1101, 1105, 1095, 1101, 1095, 1097, 1078, 1072]
ch3 : [2813, 2816, 2810, 2798, 2810, 2810, 2811, 2813, 2803, 2810]
ch0 : [2277, 2367, 2390, 2443, 2380, 2385, 2476, 2462, 2202, 2344]
ch1 : [3195, 3193, 3202, 3197, 3196, 3187, 3195, 3201, 3196, 3195]
ch2 : [1103, 1105, 1105, 1099, 1111, 1094, 1090, 1075, 1094, 1103]
ch3 : [2812, 2815, 2820, 2813, 2810, 2815, 2811, 2817, 2822, 2819]
ch0 : [2395, 2410, 2418, 2372, 2344, 2462, 2414, 2260, 2384, 2405]
ch1 : [3192, 3196, 3191, 3187, 3195, 3195, 3190, 3195, 3195, 3196]
ch2 : [1104, 1100, 1108, 1100, 1096, 1082, 1070, 1103, 1106, 1105]
ch3 : [2815, 2815, 2810, 2818, 2820, 2816, 2814, 2818, 2818, 2828]
ch0 : [2472, 2398, 2405, 2478, 2482, 2204, 2351, 2397, 2400, 2415]
ch1 : [3196, 3193, 3190, 3192, 3189, 3199, 3187, 3204, 3203, 3190]
ch2 : [1100, 1097, 1096, 1094, 1076, 1087, 1102, 1109, 1102, 1098]
ch3 : [2818, 2811, 2815, 2818, 2819, 2825, 2824, 2822, 2821, 2820]
ch0 : [2370, 2348, 2479, 2387, 2237, 2366, 2408, 2467, 2392, 2367]
ch1 : [3193, 3191, 3192, 3191, 3197, 3191, 3189, 3192, 3192, 3190]
ch2 : [1095, 1099, 1081, 1084, 1100, 1111, 1104, 1100, 1091, 1094]
ch3 : [2819, 2824, 2820, 2824, 2823, 2826, 2825, 2815, 2812, 2820]
ch0 : [2479, 2457, 2184, 2337, 2395, 2379, 2413, 2368, 2336, 2478]
ch1 : [3192, 3191, 3189, 3195, 3192, 3193, 3191, 3193, 3194, 3192]
ch2 : [1099, 1076, 1089, 1102, 1101, 1100, 1094, 1099, 1094, 1076]
ch3 : [2824, 2822, 2827, 2826, 2824, 2837, 2825, 2822, 2824, 2828]
ch0 : [2344, 2229, 2372, 2394, 2467, 2395, 2374, 2480, 2438, 2161]
ch1 : [3192, 3193, 3200, 3187, 3187, 3200, 3192, 3196, 3197, 3194]
ch2 : [1072, 1094, 1106, 1104, 1095, 1108, 1095, 1093, 1073, 1081]
ch3 : [2827, 2827, 2826, 2831, 2824, 2822, 2825, 2825, 2826, 2828]
ch0 : [2341, 2385, 2378, 2408, 2362, 2339, 2471, 2420, 2216, 2362]
ch1 : [3196, 3191, 3198, 3190, 3190, 3195, 3192, 3196, 3194, 3193]
ch2 : [1104, 1101, 1099, 1093, 1093, 1094, 1070, 1069, 1100, 1103]
ch3 : [2829, 2827, 2828, 2823, 2816, 2825, 2828, 2824, 2830, 2831]
ch0 : [2388, 2470, 2398, 2363, 2456, 2478, 2190, 2327, 2382, 2399]
ch1 : [3191, 3191, 3193, 3193, 3194, 3193, 3197, 3191, 3195, 3192]
ch2 : [1103, 1104, 1091, 1094, 1094, 1071, 1077, 1103, 1103, 1098]
ch3 : [2833, 2828, 2834, 2826, 2832, 2830, 2831, 2831, 2833, 2834]
ch0 : [2414, 2374, 2358, 2474, 2452, 2201, 2372, 2394, 2473, 2407]
ch1 : [3194, 3193, 3194, 3191, 3191, 3198, 3193, 3195, 3183, 3192]
ch2 : [1095, 1093, 1089, 1083, 1068, 1095, 1104, 1100, 1096, 1088]
ch3 : [2833, 2827, 2830, 2831, 2833, 2831, 2835, 2836, 2832, 2830]
ch0 : [2361, 2399, 2438, 2254, 2335, 2397, 2398, 2418, 2395, 2382]
ch1 : [3198, 3191, 3197, 3192, 3195, 3192, 3196, 3194, 3193, 3192]
ch2 : [1094, 1092, 1081, 1076, 1088, 1102, 1101, 1097, 1092, 1091]
ch3 : [2834, 2831, 2834, 2833, 2834, 2830, 2834, 2831, 2833, 2833]
ch0 : [2484, 2413, 2208, 2375, 2418, 2476, 2412, 2381, 2382, 2479]
ch1 : [3191, 3195, 3194, 3193, 3191, 3193, 3194, 3188, 3191, 3203]
ch2 : [1083, 1071, 1095, 1109, 1109, 1095, 1096, 1097, 1093, 1078]
ch3 : [2837, 2834, 2837, 2838, 2838, 2840, 2831, 2836, 2835, 2837]
ch0 : [2322, 2343, 2404, 2417, 2420, 2406, 2397, 2489, 2397, 2207]
ch1 : [3191, 3194, 3193, 3192, 3193, 3195, 3193, 3191, 3189, 3196]
ch2 : [1086, 1106, 1103, 1104, 1101, 1098, 1098, 1094, 1075, 1096]
ch3 : [2838, 2835, 2834, 2837, 2833, 2832, 2835, 2833, 2835, 2822]
ch0 : [2411, 2431, 2412, 2404, 2497, 2420, 2167, 2377, 2424, 2459]
ch1 : [3203, 3198, 3192, 3192, 3191, 3193, 3196, 3192, 3185, 3190]
ch2 : [1102, 1101, 1094, 1098, 1097, 1070, 1095, 1103, 1108, 1102]
ch3 : [2840, 2831, 2835, 2838, 2839, 2837, 2841, 2841, 2841, 2841]
ch0 : [2411, 2400, 2377, 2494, 2451, 2334, 2421, 2431, 2431, 2422]
ch1 : [3192, 3191, 3189, 3195, 3196, 3187, 3181, 3196, 3191, 3190]
ch2 : [1095, 1102, 1101, 1079, 1087, 1102, 1107, 1104, 1102, 1094]
ch3 : [2831, 2840, 2840, 2849, 2844, 2847, 2841, 2840, 2835, 2836]
ch0 : [2432, 2493, 2469, 2185, 2377, 2432, 2442, 2473, 2415, 2404]
ch1 : [3196, 3189, 3193, 3195, 3192, 3195, 3195, 3193, 3187, 3193]
ch2 : [1101, 1096, 1071, 1094, 1118, 1106, 1105, 1096, 1098, 1100]
ch3 : [2843, 2841, 2836, 2842, 2845, 2845, 2845, 2837, 2836, 2841]
ch0 : [2500, 2446, 2354, 2438, 2431, 2438, 2437, 2413, 2504, 2466]
ch1 : [3188, 3192, 3193, 3196, 3193, 3191, 3195, 3191, 3191, 3193]
ch2 : [1084, 1088, 1103, 1107, 1108, 1117, 1100, 1104, 1103, 1077]
ch3 : [2842, 2855, 2847, 2844, 2840, 2841, 2842, 2838, 2841, 2841]
ch0 : [2154, 2391, 2428, 2434, 2465, 2394, 2401, 2502, 2470, 2326]
ch1 : [3197, 3196, 3191, 3187, 3196, 3186, 3196, 3187, 3195, 3192]
ch2 : [1087, 1111, 1101, 1104, 1103, 1096, 1101, 1082, 1081, 1106]
ch3 : [2838, 2846, 2843, 2848, 2838, 2842, 2839, 2845, 2843, 2846]
ch0 : [2429, 2432, 2449, 2427, 2411, 2500, 2474, 2146, 2359, 2433]
ch1 : [3194, 3192, 3191, 3193, 3194, 3187, 3191, 3190, 3195, 3197]
ch2 : [1096, 1105, 1099, 1101, 1101, 1098, 1079, 1094, 1112, 1111]
ch3 : [2846, 2843, 2841, 2841, 2839, 2847, 2840, 2839, 2843, 2848]
ch0 : [2445, 2456, 2392, 2387, 2496, 2477, 2300, 2405, 2416, 2447]
ch1 : [3192, 3187, 3194, 3189, 3196, 3192, 3192, 3191, 3192, 3196]
ch2 : [1106, 1099, 1103, 1102, 1086, 1081, 1100, 1113, 1099, 1106]
ch3 : [2846, 2839, 2841, 2840, 2844, 2847, 2848, 2846, 2844, 2853]
ch0 : [2426, 2395, 2450, 2483, 2122, 2363, 2424, 2443, 2470, 2410]
ch1 : [3187, 3192, 3194, 3193, 3195, 3208, 3193, 3196, 3188, 3195]
ch2 : [1108, 1103, 1105, 1081, 1089, 1112, 1111, 1109, 1102, 1102]
ch3 : [2842, 2843, 2843, 2842, 2843, 2849, 2847, 2846, 2845, 2840]
ch0 : [2406, 2497, 2471, 2292, 2419, 2439, 2471, 2448, 2386, 2402]
ch1 : [3196, 3193, 3191, 3197, 3191, 3196, 3194, 3195, 3192, 3195]
ch2 : [1102, 1091, 1079, 1102, 1114, 1109, 1107, 1105, 1104, 1106]
ch3 : [2830, 2839, 2846, 2848, 2843, 2848, 2847, 2842, 2847, 2845]
ch0 : [2500, 2144, 2352, 2438, 2453, 2472, 2399, 2413, 2504, 2465]
ch1 : [3191, 3193, 3196, 3195, 3192, 3194, 3191, 3200, 3191, 3189]
ch2 : [1081, 1092, 1117, 1113, 1109, 1102, 1104, 1105, 1097, 1084]
ch3 : [2843, 2847, 2850, 2848, 2851, 2842, 2845, 2846, 2849, 2851]
ch0 : [2270, 2417, 2443, 2453, 2438, 2397, 2361, 2492, 2133, 2324]
ch1 : [3192, 3181, 3193, 3202, 3193, 3194, 3197, 3195, 3196, 3194]
ch2 : [1102, 1111, 1110, 1110, 1096, 1104, 1106, 1081, 1085, 1107]
ch3 : [2848, 2850, 2849, 2849, 2847, 2849, 2849, 2850, 2847, 2847]
ch0 : [2427, 2453, 2491, 2412, 2402, 2510, 2492, 2271, 2409, 2434]
ch1 : [3195, 3193, 3192, 3196, 3200, 3192, 3191, 3192, 3195, 3187]
ch2 : [1111, 1105, 1099, 1098, 1104, 1089, 1082, 1105, 1110, 1094]
ch3 : [2852, 2848, 2845, 2857, 2846, 2853, 2850, 2855, 2852, 2853]
ch0 : [2451, 2441, 2391, 2363, 2506, 2226, 2323, 2433, 2440, 2474]
ch1 : [3190, 3194, 3196, 3195, 3198, 3195, 3192, 3193, 3192, 3196]
ch2 : [1106, 1109, 1103, 1104, 1085, 1089, 1111, 1118, 1109, 1102]
ch3 : [2853, 2852, 2854, 2851, 2846, 2851, 2850, 2853, 2856, 2850]
ch0 : [2397, 2409, 2519, 2456, 2291, 2408, 2435, 2456, 2456, 2403]
ch1 : [3193, 3196, 3193, 3194, 3195, 3193, 3196, 3192, 3189, 3195]
ch2 : [1100, 1102, 1095, 1084, 1099, 1112, 1110, 1104, 1104, 1104]
ch3 : [2849, 2851, 2847, 2852, 2855, 2864, 2854, 2857, 2849, 2851]
ch0 : [2378, 2448, 2321, 2331, 2420, 2442, 2479, 2405, 2419, 2510]
ch1 : [3182, 3192, 3196, 3182, 3191, 3191, 3191, 3193, 3192, 3195]
ch2 : [1103, 1083, 1085, 1116, 1105, 1115, 1091, 1106, 1103, 1095]
ch3 : [2851, 2849, 2850, 2858, 2857, 2846, 2852, 2847, 2848, 2847]
ch0 : [2487, 2252, 2392, 2416, 2444, 2436, 2415, 2355, 2480, 2328]
ch1 : [3196, 3198, 3190, 3191, 3193, 3189, 3190, 3191, 3196, 3197]
ch2 : [1084, 1099, 1114, 1110, 1110, 1108, 1107, 1104, 1085, 1078]
ch3 : [2852, 2852, 2855, 2857, 2854, 2855, 2856, 2854, 2849, 2852]
ch0 : [2301, 2417, 2432, 2492, 2424, 2435, 2495, 2488, 2226, 2385]
ch1 : [3196, 3194, 3194, 3191, 3190, 3189, 3194, 3192, 3196, 3193]
ch2 : [1109, 1113, 1108, 1119, 1105, 1103, 1097, 1072, 1095, 1108]
ch3 : [2853, 2854, 2856, 2853, 2851, 2854, 2857, 2855, 2856, 2854]
ch0 : [2440, 2462, 2442, 2405, 2372, 2501, 2399, 2321, 2422, 2435]
ch1 : [3196, 3191, 3195, 3194, 3195, 3191, 3192, 3193, 3195, 3194]
ch2 : [1119, 1105, 1100, 1112, 1103, 1085, 1076, 1107, 1113, 1110]
ch3 : [2858, 2854, 2853, 2859, 2853, 2850, 2853, 2856, 2865, 2854]
ch0 : [2464, 2426, 2427, 2511, 2513, 2288, 2396, 2421, 2428, 2467]
ch1 : [3192, 3195, 3193, 3188, 3195, 3192, 3195, 3191, 3192, 3196]
ch2 : [1083, 1104, 1114, 1097, 1082, 1093, 1109, 1113, 1104, 1102]
ch3 : [2854, 2857, 2853, 2849, 2850, 2849, 2851, 2857, 2857, 2855]
ch0 : [2425, 2428, 2513, 2472, 2356, 2502, 2489, 2523, 2409, 2383]
ch1 : [3191, 3189, 3194, 3191, 3197, 3188, 3193, 3190, 3193, 3192]
ch2 : [1100, 1104, 1085, 1089, 1107, 1114, 1106, 1103, 1102, 1100]
ch3 : [2851, 2850, 2849, 2847, 2835, 2844, 2859, 2853, 2866, 2852]
ch0 : [2519, 2514, 2293, 2457, 2513, 2520, 2521, 2305, 2216, 2474]
ch1 : [3191, 3195, 3193, 3193, 3194, 3193, 3191, 3195, 3195, 3191]
ch2 : [1103, 1084, 1093, 1109, 1110, 1108, 1098, 1098, 1100, 1089]
ch3 : [2848, 2846, 2839, 2857, 2845, 2843, 2843, 2845, 2850, 2848]
ch0 : [2479, 2464, 2417, 2516, 2516, 2510, 2453, 2354, 2371, 2517]
ch1 : [3193, 3192, 3196, 3200, 3190, 3188, 3192, 3195, 3192, 3192]
ch2 : [1098, 1102, 1099, 1099, 1100, 1096, 1080, 1074, 1098, 1108]
ch3 : [2863, 2858, 2859, 2849, 2857, 2852, 2856, 2864, 2868, 2866]
ch0 : [2524, 2402, 2375, 2405, 2493, 2459, 2228, 2482, 2517, 2367]
ch1 : [3191, 3187, 3194, 3193, 3190, 3191, 3197, 3191, 3194, 3192]
ch2 : [1104, 1096, 1094, 1097, 1101, 1077, 1084, 1104, 1106, 1106]
ch3 : [2857, 2860, 2845, 2862, 2858, 2859, 2857, 2852, 2850, 2854]
ch0 : [2315, 2424, 2443, 2517, 2345, 2047, 2348, 2498, 2502, 2397]
ch1 : [3193, 3194, 3191, 3193, 3193, 3200, 3193, 3192, 3194, 3193]
ch2 : [1102, 1098, 1096, 1093, 1074, 1102, 1111, 1113, 1095, 1098]
ch3 : [2848, 2851, 2846, 2844, 2843, 2846, 2846, 2856, 2855, 2840]
ch0 : [2372, 2488, 2506, 2222, 2235, 2196, 2289, 2443, 2488, 2363]
ch1 : [3193, 3195, 3196, 3208, 3193, 3194, 3189, 3196, 3194, 3193]
ch2 : [1099, 1083, 1082, 1087, 1108, 1108, 1106, 1102, 1106, 1103]
ch3 : [2841, 2847, 2839, 2845, 2845, 2854, 2844, 2834, 2838, 2836]
ch0 : [2454, 2501, 2400, 2232, 2170, 2486, 2489, 2496, 2485, 2360]
ch1 : [3190, 3193, 3197, 3195, 3194, 3194, 3187, 3195, 3192, 3193]
ch2 : [1088, 1077, 1103, 1114, 1102, 1095, 1098, 1099, 1106, 1081]
ch3 : [2835, 2843, 2836, 2840, 2844, 2849, 2828, 2837, 2830, 2833]
ch0 : [2224, 2328, 2374, 2479, 2494, 2323, 2338, 2488, 2436, 2203]
ch1 : [3194, 3192, 3196, 3191, 3191, 3180, 3196, 3187, 3195, 3196]
ch2 : [1084, 1107, 1109, 1106, 1098, 1102, 1098, 1089, 1075, 1098]
ch3 : [2844, 2838, 2839, 2837, 2841, 2841, 2843, 2838, 2830, 2831]
ch0 : [2309, 2421, 2482, 2378, 2318, 2286, 2484, 2414, 2400, 2285]
ch1 : [3195, 3187, 3196, 3193, 3196, 3193, 3192, 3195, 3192, 3193]
ch2 : [1102, 1106, 1102, 1097, 1098, 1100, 1077, 1084, 1108, 1110]
ch3 : [2835, 2841, 2841, 2831, 2820, 2825, 2826, 2829, 2827, 2823]
ch0 : [2247, 2463, 2413, 2473, 2486, 2336, 2069, 2273, 2388, 2341]
ch1 : [3192, 3195, 3194, 3196, 3190, 3191, 3198, 3187, 3196, 3186]
ch2 : [1104, 1102, 1094, 1101, 1088, 1072, 1101, 1110, 1112, 1105]
ch3 : [2820, 2817, 2825, 2812, 2819, 2816, 2811, 2814, 2820, 2815]
ch0 : [2438, 2477, 2476, 2438, 2188, 2290, 2395, 2438, 2374, 1986]
ch1 : [3189, 3191, 3194, 3197, 3194, 3195, 3190, 3190, 3198, 3194]
ch2 : [1100, 1098, 1101, 1087, 1086, 1108, 1114, 1110, 1112, 1102]
ch3 : [2794, 2802, 2806, 2815, 2820, 2813, 2799, 2792, 2794, 2802]
ch0 : [2474, 2374, 2380, 2473, 2372, 2226, 2282, 2401, 2470, 2419]
ch1 : [3195, 3196, 3193, 3193, 3194, 3197, 3192, 3195, 3193, 3193]
ch2 : [1093, 1083, 1106, 1123, 1113, 1110, 1113, 1109, 1103, 1088]
ch3 : [2801, 2790, 2798, 2788, 2789, 2781, 2788, 2783, 2785, 2782]
ch0 : [2122, 2304, 2367, 2381, 2345, 2429, 2299, 2397, 2168, 2309]
ch1 : [3190, 3194, 3192, 3193, 3192, 3192, 3192, 3193, 3192, 3193]
ch2 : [1096, 1116, 1113, 1111, 1104, 1106, 1105, 1090, 1081, 1110]
ch3 : [2784, 2783, 2784, 2781, 2769, 2769, 2769, 2765, 2751, 2772]
ch0 : [2436, 2459, 2312, 2210, 2237, 2448, 2465, 2070, 2262, 2315]
ch1 : [3195, 3192, 3192, 3196, 3195, 3197, 3204, 3194, 3193, 3196]
ch2 : [1115, 1112, 1104, 1102, 1103, 1106, 1086, 1094, 1117, 1111]
ch3 : [2769, 2763, 2762, 2760, 2760, 2753, 2746, 2748, 2749, 2751]
ch0 : [2242, 2384, 2344, 2325, 2446, 2427, 2283, 2261, 2198, 2318]
ch1 : [3196, 3187, 3195, 3195, 3190, 3190, 3205, 3197, 3195, 3195]
ch2 : [1112, 1108, 1104, 1105, 1092, 1089, 1111, 1117, 1113, 1112]
ch3 : [2752, 2750, 2741, 2740, 2735, 2741, 2741, 2744, 2748, 2743]
ch0 : [2353, 2311, 2457, 2362, 2002, 2277, 2363, 2285, 2392, 2364]
ch1 : [3189, 3193, 3196, 3197, 3194, 3192, 3194, 3190, 3194, 3193]
ch2 : [1120, 1109, 1112, 1092, 1105, 1118, 1127, 1118, 1111, 1114]
ch3 : [2739, 2740, 2754, 2735, 2736, 2742, 2746, 2752, 2741, 2740]
ch0 : [2285, 2335, 2222, 2183, 2381, 2375, 2357, 2302, 2259, 2356]
ch1 : [3197, 3196, 3196, 3195, 3191, 3200, 3191, 3193, 3198, 3193]
ch2 : [1109, 1098, 1094, 1115, 1129, 1124, 1117, 1117, 1114, 1114]
ch3 : [2735, 2737, 2742, 2738, 2738, 2735, 2737, 2745, 2738, 2739]
ch0 : [2294, 1998, 2229, 2292, 2330, 2350, 2316, 2310, 2406, 2384]
ch1 : [3191, 3196, 3196, 3195, 3195, 3191, 3194, 3196, 3193, 3196]
ch2 : [1090, 1099, 1121, 1124, 1121, 1121, 1093, 1112, 1097, 1092]
ch3 : [2736, 2733, 2742, 2741, 2737, 2732, 2733, 2732, 2731, 2732]
ch0 : [2204, 2225, 2283, 2353, 2322, 2287, 2262, 2324, 1990, 2223]
ch1 : [3196, 3196, 3191, 3194, 3191, 3191, 3192, 3196, 3200, 3197]
ch2 : [1113, 1116, 1113, 1115, 1113, 1113, 1112, 1085, 1098, 1120]
ch3 : [2727, 2730, 2730, 2736, 2724, 2727, 2729, 2728, 2723, 2728]
ch0 : [2287, 2323, 2323, 2266, 2304, 2422, 2330, 2146, 2299, 2311]
ch1 : [3198, 3195, 3196, 3195, 3195, 3194, 3195, 3194, 3195, 3197]
ch2 : [1121, 1118, 1110, 1108, 1110, 1098, 1091, 1113, 1120, 1117]
ch3 : [2734, 2737, 2724, 2728, 2724, 2729, 2723, 2734, 2728, 2730]
ch0 : [2346, 2306, 2271, 2257, 2375, 2026, 2214, 2302, 2314, 2339]
ch1 : [3193, 3196, 3195, 3194, 3191, 3196, 3197, 3191, 3192, 3188]
ch2 : [1116, 1114, 1113, 1116, 1093, 1101, 1122, 1119, 1115, 1114]
ch3 : [2731, 2728, 2729, 2732, 2728, 2729, 2733, 2732, 2738, 2727]
ch0 : [2239, 2369, 2060, 2212, 2304, 2326, 2358, 2277, 2307, 2419]
ch1 : [3197, 3195, 3191, 3186, 3195, 3193, 3197, 3193, 3196, 3195]
ch2 : [1120, 1096, 1099, 1124, 1128, 1124, 1120, 1117, 1123, 1105]
ch3 : [2736, 2733, 2732, 2737, 2736, 2731, 2732, 2731, 2736, 2740]
ch0 : [2374, 2181, 2286, 2324, 2344, 2341, 2290, 2266, 2401, 2160]
ch1 : [3192, 3196, 3192, 3192, 3193, 3192, 3193, 3193, 3193, 3193]
ch2 : [1103, 1117, 1123, 1125, 1123, 1120, 1120, 1120, 1100, 1097]
ch3 : [2742, 2745, 2740, 2741, 2744, 2743, 2745, 2748, 2748, 2746]
ch0 : [2228, 2328, 2332, 2374, 2309, 2311, 2430, 2402, 2155, 2321]
ch1 : [3196, 3195, 3197, 3193, 3193, 3194, 3192, 3192, 3194, 3191]
ch2 : [1131, 1130, 1126, 1118, 1115, 1117, 1112, 1104, 1117, 1128]
ch3 : [2753, 2757, 2766, 2755, 2755, 2756, 2758, 2764, 2767, 2759]
ch0 : [2333, 2355, 2348, 2314, 2298, 2426, 2252, 2245, 2351, 2390]
ch1 : [3196, 3189, 3195, 3202, 3187, 3180, 3197, 3198, 3197, 3192]
ch2 : [1127, 1124, 1131, 1122, 1119, 1105, 1092, 1125, 1128, 1125]
ch3 : [2761, 2777, 2762, 2756, 2766, 2766, 2759, 2772, 2773, 2780]
ch0 : [2428, 2362, 2360, 2445, 2440, 2237, 2372, 2400, 2418, 2431]
ch1 : [3192, 3194, 3195, 3192, 3191, 3196, 3197, 3196, 3189, 3194]
ch2 : [1116, 1116, 1116, 1113, 1096, 1109, 1124, 1124, 1118, 1112]
ch3 : [2768, 2767, 2767, 2767, 2773, 2781, 2776, 2772, 2773, 2773]
ch0 : [2365, 2352, 2458, 2289, 2280, 2392, 2404, 2466, 2382, 2390]
ch1 : [3194, 3193, 3193, 3184, 3194, 3196, 3199, 3191, 3192, 3195]
ch2 : [1105, 1108, 1093, 1092, 1107, 1119, 1114, 1108, 1102, 1108]
ch3 : [2772, 2773, 2772, 2770, 2776, 2781, 2777, 2774, 2777, 2773]
ch0 : [2484, 2426, 2188, 2342, 2373, 2384, 2404, 2366, 2318, 2471]
ch1 : [3191, 3192, 3193, 3192, 3192, 3195, 3194, 3193, 3194, 3191]
ch2 : [1104, 1089, 1099, 1112, 1130, 1112, 1107, 1105, 1108, 1083]
ch3 : [2778, 2779, 2781, 2784, 2779, 2781, 2789, 2780, 2780, 2779]
ch0 : [2349, 2232, 2345, 2392, 2446, 2362, 2349, 2467, 2412, 2172]
ch1 : [3196, 3198, 3192, 3192, 3196, 3193, 3197, 3196, 3192, 3197]
ch2 : [1077, 1109, 1114, 1108, 1104, 1102, 1104, 1114, 1084, 1094]
ch3 : [2779, 2785, 2788, 2786, 2784, 2781, 2782, 2782, 2789, 2788]
ch0 : [2315, 2367, 2372, 2378, 2328, 2324, 2458, 2330, 2219, 2350]
ch1 : [3191, 3201, 3197, 3195, 3193, 3203, 3190, 3183, 3207, 3200]
ch2 : [1112, 1112, 1109, 1097, 1102, 1104, 1101, 1078, 1111, 1111]
ch3 : [2783, 2788, 2789, 2789, 2793, 2786, 2790, 2787, 2791, 2793]
ch0 : [2367, 2440, 2367, 2359, 2459, 2460, 2160, 2328, 2375, 2367]
ch1 : [3191, 3196, 3192, 3192, 3191, 3195, 3198, 3195, 3191, 3191]
ch2 : [1109, 1103, 1100, 1099, 1099, 1080, 1091, 1104, 1108, 1106]
ch3 : [2793, 2783, 2792, 2778, 2792, 2794, 2798, 2781, 2797, 2795]
ch0 : [2391, 2357, 2326, 2463, 2384, 2224, 2348, 2394, 2452, 2371]
ch1 : [3196, 3191, 3198, 3196, 3191, 3197, 3193, 3192, 3192, 3196]
ch2 : [1098, 1097, 1096, 1086, 1075, 1098, 1099, 1096, 1093, 1102]
ch3 : [2795, 2797, 2795, 2796, 2800, 2799, 2800, 2804, 2798, 2796]
ch0 : [2347, 2461, 2448, 2165, 2335, 2396, 2373, 2388, 2364, 2342]
ch1 : [3180, 3191, 3196, 3198, 3193, 3195, 3193, 3196, 3191, 3196]
ch2 : [1096, 1097, 1074, 1082, 1102, 1104, 1101, 1093, 1099, 1099]
ch3 : [2795, 2797, 2802, 2804, 2801, 2796, 2801, 2799, 2801, 2802]
ch0 : [2470, 2417, 2209, 2359, 2392, 2459, 2380, 2347, 2426, 2424]
ch1 : [3191, 3192, 3195, 3191, 3194, 3192, 3193, 3194, 3193, 3195]
ch2 : [1080, 1068, 1099, 1105, 1104, 1094, 1092, 1095, 1093, 1080]
ch3 : [2803, 2800, 2806, 2815, 2805, 2806, 2804, 2802, 2803, 2803]
ch0 : [2150, 2332, 2374, 2373, 2385, 2373, 2339, 2475, 2364, 2198]
ch1 : [3195, 3196, 3180, 3195, 3196, 3197, 3191, 3195, 3193, 3193]
ch2 : [1081, 1115, 1104, 1099, 1098, 1093, 1096, 1082, 1074, 1092]
ch3 : [2799, 2811, 2807, 2807, 2806, 2815, 2803, 2802, 2799, 2805]
ch0 : [2341, 2384, 2452, 2391, 2351, 2383, 2461, 2243, 2311, 2378]
ch1 : [3195, 3188, 3194, 3191, 3193, 3192, 3192, 3197, 3195, 3189]
ch2 : [1106, 1114, 1099, 1090, 1096, 1097, 1082, 1076, 1102, 1104]
ch3 : [2805, 2811, 2810, 2808, 2805, 2810, 2812, 2798, 2809, 2812]
ch0 : [2380, 2405, 2350, 2363, 2470, 2411, 2173, 2352, 2392, 2462]
ch1 : [3191, 3192, 3193, 3204, 3193, 3191, 3195, 3198, 3192, 3189]
ch2 : [1100, 1094, 1097, 1098, 1089, 1076, 1097, 1112, 1106, 1101]
ch3 : [2809, 2809, 2807, 2806, 2811, 2810, 2813, 2812, 2812, 2812]
ch0 : [2397, 2363, 2353, 2470, 2289, 2316, 2371, 2378, 2395, 2351]
ch1 : [3194, 3194, 3195, 3196, 3188, 3202, 3207, 3196, 3193, 3193]
ch2 : [1105, 1093, 1100, 1083, 1079, 1103, 1108, 1104, 1103, 1101]
ch3 : [2811, 2812, 2812, 2812, 2819, 2812, 2814, 2811, 2809, 2815]
ch0 : [2370, 2476, 2387, 2156, 2334, 2373, 2443, 2393, 2361, 2342]
ch1 : [3192, 3191, 3193, 3194, 3196, 3205, 3196, 3193, 3195, 3195]
ch2 : [1100, 1092, 1075, 1097, 1111, 1107, 1102, 1098, 1100, 1102]
ch3 : [2814, 2815, 2815, 2818, 2820, 2818, 2818, 2813, 2815, 2812]
ch0 : [2456, 2352, 2285, 2367, 2381, 2391, 2354, 2359, 2468, 2403]
ch1 : [3196, 3190, 3193, 3191, 3193, 3191, 3194, 3193, 3191, 3193]
ch2 : [1078, 1080, 1103, 1112, 1104, 1101, 1100, 1099, 1092, 1076]
ch3 : [2812, 2822, 2818, 2818, 2820, 2811, 2820, 2818, 2821, 2818]
ch0 : [2127, 2325, 2368, 2398, 2406, 2333, 2332, 2465, 2373, 2268]
ch1 : [3197, 3196, 3191, 3187, 3193, 3192, 3194, 3196, 3195, 3200]
ch2 : [1095, 1123, 1097, 1099, 1095, 1101, 1092, 1079, 1074, 1102]
ch3 : [2822, 2821, 2822, 2819, 2813, 2818, 2819, 2820, 2833, 2822]
ch0 : [2356, 2336, 2375, 2356, 2372, 2464, 2440, 2108, 2311, 2364]
ch1 : [3191, 3195, 3191, 3193, 3190, 3191, 3193, 3197, 3194, 3200]
ch2 : [1104, 1097, 1100, 1100, 1098, 1095, 1073, 1090, 1105, 1106]
ch3 : [2821, 2818, 2815, 2820, 2815, 2814, 2813, 2815, 2822, 2824]
ch0 : [2369, 2398, 2351, 2338, 2456, 2397, 2295, 2378, 2376, 2409]
ch1 : [3191, 3193, 3196, 3193, 3192, 3197, 3194, 3195, 3194, 3191]
ch2 : [1086, 1097, 1094, 1098, 1079, 1078, 1101, 1106, 1107, 1103]
ch3 : [2820, 2814, 2818, 2815, 2821, 2821, 2821, 2827, 2821, 2824]
ch0 : [2385, 2364, 2464, 2413, 2111, 2316, 2374, 2396, 2425, 2360]
ch1 : [3181, 3192, 3196, 3191, 3192, 3195, 3192, 3195, 3194, 3200]
ch2 : [1103, 1099, 1098, 1082, 1086, 1110, 1106, 1104, 1102, 1096]
ch3 : [2823, 2824, 2822, 2818, 2823, 2822, 2824, 2822, 2818, 2820]
ch0 : [2463, 2095, 2318, 2400, 2409, 2440, 2359, 2373, 2476, 2469]
ch1 : [3191, 3197, 3197, 3202, 3193, 3195, 3197, 3195, 3191, 3192]
ch2 : [1093, 1086, 1107, 1111, 1102, 1095, 1115, 1097, 1084, 1077]
ch3 : [2822, 2825, 2825, 2838, 2827, 2819, 2821, 2826, 2828, 2828]
ch0 : [2268, 2375, 2385, 2414, 2389, 2359, 2397, 2458, 2086, 2314]
ch1 : [3183, 3196, 3192, 3192, 3191, 3183, 3193, 3195, 3195, 3197]
ch2 : [1099, 1112, 1100, 1099, 1101, 1103, 1100, 1080, 1088, 1116]
ch3 : [2830, 2827, 2837, 2827, 2820, 2827, 2826, 2824, 2825, 2830]
ch0 : [2377, 2397, 2436, 2371, 2374, 2479, 2404, 2262, 2376, 2388]
ch1 : [3194, 3185, 3191, 3195, 3195, 3193, 3200, 3192, 3196, 3193]
ch2 : [1108, 1105, 1100, 1094, 1099, 1086, 1092, 1104, 1109, 1107]
ch3 : [2823, 2828, 2825, 2822, 2830, 2826, 2829, 2831, 2829, 2832]
ch0 : [2421, 2406, 2360, 2323, 2410, 2121, 2320, 2381, 2389, 2454]
ch1 : [3191, 3192, 3196, 3207, 3207, 3197, 3196, 3187, 3193, 3194]
ch2 : [1104, 1102, 1105, 1104, 1081, 1091, 1114, 1110, 1107, 1101]
ch3 : [2830, 2824, 2828, 2829, 2829, 2823, 2839, 2832, 2825, 2832]
ch0 : [2375, 2394, 2480, 2466, 2269, 2405, 2412, 2431, 2427, 2382]
ch1 : [3193, 3193, 3191, 3192, 3195, 3192, 3199, 3187, 3195, 3191]
ch2 : [1097, 1101, 1088, 1079, 1098, 1110, 1104, 1106, 1104, 1104]
ch3 : [2821, 2820, 2830, 2832, 2834, 2828, 2833, 2828, 2832, 2831]
ch0 : [2335, 2450, 2182, 2321, 2416, 2437, 2465, 2383, 2391, 2486]
ch1 : [3192, 3194, 3196, 3194, 3202, 3200, 3193, 3193, 3192, 3194]
ch2 : [1103, 1084, 1082, 1112, 1110, 1107, 1101, 1099, 1108, 1092]
ch3 : [2832, 2828, 2828, 2834, 2827, 2833, 2829, 2828, 2828, 2830]
ch0 : [2476, 2264, 2405, 2431, 2449, 2442, 2398, 2382, 2490, 2318]
ch1 : [3192, 3194, 3198, 3195, 3193, 3194, 3195, 3195, 3191, 3194]
ch2 : [1096, 1096, 1111, 1109, 1106, 1108, 1102, 1105, 1086, 1076]
ch3 : [2835, 2826, 2841, 2832, 2831, 2832, 2833, 2834, 2831, 2833]
ch0 : [2315, 2409, 2442, 2460, 2408, 2415, 2494, 2480, 2237, 2381]
ch1 : [3196, 3198, 3195, 3194, 3187, 3197, 3198, 3187, 3196, 3187]
ch2 : [1110, 1115, 1110, 1102, 1100, 1102, 1097, 1082, 1101, 1108]
ch3 : [2835, 2833, 2838, 2833, 2833, 2830, 2836, 2835, 2838, 2839]
ch0 : [2416, 2431, 2417, 2399, 2349, 2487, 2318, 2286, 2413, 2426]
ch1 : [3193, 3192, 3191, 3191, 3195, 3194, 3197, 3191, 3200, 3195]
ch2 : [1108, 1107, 1103, 1116, 1098, 1089, 1089, 1109, 1113, 1109]
ch3 : [2841, 2835, 2843, 2834, 2837, 2836, 2833, 2837, 2839, 2840]
ch0 : [2468, 2405, 2402, 2491, 2453, 2234, 2386, 2407, 2428, 2437]
ch1 : [3187, 3189, 3190, 3188, 3193, 3196, 3200, 3190, 3195, 3196]
ch2 : [1104, 1101, 1107, 1094, 1082, 1098, 1108, 1108, 1109, 1106]
ch3 : [2835, 2830, 2835, 2836, 2838, 2839, 2840, 2831, 2837, 2835]
ch0 : [2390, 2371, 2494, 2480, 2298, 2405, 2425, 2481, 2417, 2400]
ch1 : [3202, 3200, 3184, 3195, 3193, 3191, 3192, 3196, 3193, 3196]
ch2 : [1107, 1102, 1088, 1080, 1112, 1120, 1111, 1106, 1103, 1107]
ch3 : [2835, 2838, 2830, 2836, 2836, 2835, 2841, 2838, 2824, 2834]
ch0 : [2495, 2472, 2224, 2387, 2431, 2416, 2461, 2403, 2370, 2494]
ch1 : [3195, 3197, 3193, 3190, 3191, 3193, 3193, 3195, 3192, 3193]
ch2 : [1105, 1086, 1098, 1113, 1116, 1110, 1106, 1106, 1113, 1090]
ch3 : [2840, 2840, 2843, 2840, 2839, 2840, 2827, 2840, 2838, 2839]
ch0 : [2402, 2317, 2420, 2422, 2488, 2400, 2431, 2498, 2500, 2215]
ch1 : [3190, 3197, 3196, 3195, 3195, 3195, 3191, 3191, 3191, 3196]
ch2 : [1082, 1114, 1111, 1108, 1108, 1104, 1108, 1105, 1088, 1098]
ch3 : [2837, 2837, 2842, 2834, 2839, 2837, 2837, 2835, 2843, 2844]
ch0 : [2387, 2419, 2409, 2437, 2412, 2383, 2494, 2460, 2286, 2399]
ch1 : [3194, 3194, 3195, 3196, 3194, 3193, 3191, 3196, 3197, 3194]
ch2 : [1118, 1132, 1113, 1110, 1108, 1095, 1095, 1088, 1113, 1120]
ch3 : [2844, 2842, 2838, 2834, 2838, 2840, 2841, 2841, 2843, 2850]
ch0 : [2435, 2494, 2438, 2399, 2495, 2481, 2224, 2369, 2420, 2405]
ch1 : [3193, 3192, 3194, 3195, 3194, 3187, 3196, 3196, 3194, 3193]
ch2 : [1114, 1108, 1112, 1110, 1124, 1090, 1103, 1114, 1115, 1114]
ch3 : [2846, 2840, 2838, 2841, 2841, 2841, 2844, 2841, 2844, 2841]
ch0 : [2446, 2394, 2382, 2508, 2466, 2247, 2403, 2425, 2493, 2435]
ch1 : [3191, 3196, 3197, 3194, 3195, 3192, 3187, 3192, 3191, 3193]
ch2 : [1112, 1110, 1113, 1099, 1083, 1110, 1122, 1119, 1117, 1110]
ch3 : [2843, 2843, 2844, 2845, 2841, 2840, 2846, 2848, 2845, 2840]
ch0 : [2389, 2492, 2490, 2212, 2371, 2423, 2411, 2417, 2400, 2393]
ch1 : [3195, 3194, 3196, 3191, 3188, 3191, 3194, 3192, 3196, 3193]
ch2 : [1113, 1114, 1096, 1099, 1119, 1121, 1117, 1119, 1112, 1114]
ch3 : [2842, 2844, 2844, 2847, 2848, 2843, 2848, 2845, 2844, 2845]
ch0 : [2500, 2457, 2226, 2381, 2431, 2476, 2449, 2402, 2443, 2502]
ch1 : [3192, 3196, 3196, 3190, 3190, 3192, 3201, 3188, 3187, 3190]
ch2 : [1099, 1086, 1114, 1120, 1119, 1114, 1107, 1111, 1110, 1091]
ch3 : [2846, 2842, 2846, 2847, 2843, 2844, 2838, 2839, 2844, 2848]
ch0 : [2232, 2371, 2407, 2424, 2441, 2407, 2394, 2507, 2472, 2230]
ch1 : [3194, 3191, 3191, 3196, 3191, 3193, 3198, 3191, 3196, 3195]
ch2 : [1090, 1114, 1115, 1112, 1106, 1101, 1094, 1100, 1087, 1107]
ch3 : [2854, 2848, 2847, 2847, 2844, 2843, 2847, 2846, 2853, 2849]
ch0 : [2396, 2429, 2496, 2423, 2393, 2398, 2450, 2320, 2356, 2437]
ch1 : [3193, 3192, 3191, 3191, 3192, 3193, 3192, 3192, 3191, 3198]
ch2 : [1125, 1115, 1107, 1098, 1099, 1105, 1084, 1089, 1106, 1101]
ch3 : [2853, 2849, 2850, 2853, 2839, 2845, 2844, 2849, 2850, 2848]
ch0 : [2417, 2445, 2384, 2411, 2498, 2474, 2202, 2398, 2431, 2493]
ch1 : [3193, 3196, 3193, 3192, 3191, 3195, 3194, 3195, 3190, 3201]
ch2 : [1085, 1104, 1091, 1100, 1088, 1070, 1090, 1100, 1102, 1096]
ch3 : [2851, 2848, 2845, 2846, 2849, 2845, 2850, 2849, 2852, 2846]
ch0 : [2439, 2395, 2376, 2479, 2370, 2351, 2412, 2420, 2441, 2401]
ch1 : [3189, 3206, 3194, 3191, 3193, 3200, 3209, 3196, 3196, 3193]
ch2 : [1089, 1095, 1088, 1088, 1068, 1094, 1097, 1090, 1085, 1086]
ch3 : [2845, 2843, 2844, 2848, 2853, 2853, 2849, 2848, 2850, 2848]
ch0 : [2394, 2495, 2473, 2188, 2362, 2426, 2494, 2449, 2383, 2380]
ch1 : [3194, 3194, 3193, 3195, 3201, 3193, 3196, 3193, 3196, 3201]
ch2 : [1083, 1085, 1056, 1063, 1078, 1080, 1078, 1066, 1064, 1065]
ch3 : [2847, 2849, 2850, 2853, 2853, 2851, 2854, 2847, 2843, 2852]
ch0 : [2482, 2392, 2330, 2428, 2407, 2445, 2411, 2419, 2500, 2500]
ch1 : [3193, 3193, 3193, 3191, 3193, 3195, 3192, 3187, 3191, 3193]
ch2 : [1041, 1040, 1057, 1066, 1058, 1051, 1044, 1038, 1034, 1013]
ch3 : [2847, 2853, 2855, 2859, 2852, 2846, 2850, 2847, 2847, 2847]
ch0 : [2173, 2388, 2434, 2445, 2464, 2407, 2397, 2504, 2432, 2340]
ch1 : [3195, 3193, 3193, 3188, 3193, 3205, 3194, 3195, 3194, 3197]
ch2 : [1033, 1041, 1031, 1021, 1013, 1010, 1013, 988, 976, 994]
ch3 : [2847, 2853, 2851, 2851, 2843, 2848, 2848, 2849, 2851, 2850]
ch0 : [2434, 2434, 2464, 2443, 2432, 2514, 2449, 2181, 2375, 2443]
ch1 : [3194, 3193, 3193, 3193, 3196, 3193, 3197, 3195, 3192, 3191]
ch2 : [980, 991, 987, 976, 969, 957, 935, 949, 956, 942]
ch3 : [2850, 2848, 2848, 2858, 2849, 2851, 2856, 2848, 2852, 2852]
ch0 : [2443, 2459, 2419, 2407, 2499, 2450, 2331, 2435, 2441, 2454]
ch1 : [3195, 3191, 3192, 3195, 3190, 3193, 3196, 3190, 3181, 3193]
ch2 : [934, 926, 925, 923, 897, 878, 899, 900, 893, 893]
ch3 : [2853, 2850, 2845, 2847, 2852, 2851, 2854, 2850, 2848, 2849]
ch0 : [2403, 2489, 2476, 2317, 2420, 2432, 2454, 2440, 2394, 2502]
ch1 : [3191, 3194, 3195, 3195, 3187, 3196, 3183, 3191, 3193, 3206]
ch2 : [782, 770, 767, 774, 772, 765, 758, 754, 736, 733]
ch3 : [2850, 2853, 2851, 2855, 2852, 2850, 2852, 2849, 2851, 2851]
ch0 : [2500, 2143, 2369, 2431, 2440, 2474, 2396, 2401, 2506, 2452]
ch1 : [3195, 3194, 3198, 3191, 3197, 3187, 3194, 3190, 3208, 3200]
ch2 : [715, 717, 728, 722, 712, 696, 692, 687, 676, 658]
ch3 : [2850, 2852, 2856, 2849, 2855, 2847, 2850, 2840, 2852, 2852]
ch0 : [2312, 2414, 2417, 2456, 2419, 2386, 2436, 2485, 2150, 2354]
ch1 : [3192, 3200, 3193, 3196, 3187, 3203, 3194, 3194, 3194, 3196]
ch2 : [664, 664, 659, 655, 641, 630, 636, 604, 604, 614]
ch3 : [2852, 2847, 2853, 2852, 2851, 2850, 2855, 2854, 2852, 2856]
ch0 : [2422, 2436, 2469, 2391, 2400, 2504, 2425, 2311, 2416, 2429]
ch1 : [3186, 3195, 3198, 3194, 3196, 3196, 3195, 3197, 3196, 3193]
ch2 : [606, 598, 588, 578, 582, 567, 547, 555, 559, 554]
ch3 : [2855, 2865, 2853, 2846, 2860, 2855, 2844, 2857, 2854, 2851]
ch0 : [2456, 2434, 2395, 2379, 2497, 2119, 2348, 2411, 2444, 2480]
ch1 : [3194, 3198, 3198, 3195, 3196, 3196, 3195, 3196, 3197, 3196]
ch2 : [551, 544, 537, 530, 510, 517, 524, 525, 518, 510]
ch3 : [2856, 2852, 2854, 2857, 2852, 2855, 2859, 2869, 2857, 2852]
ch0 : [2411, 2405, 2497, 2454, 2292, 2398, 2437, 2467, 2438, 2383]
ch1 : [3195, 3193, 3191, 3195, 3187, 3193, 3196, 3193, 3197, 3195]
ch2 : [499, 503, 487, 480, 500, 500, 492, 485, 477, 471]
ch3 : [2857, 2851, 2854, 2858, 2858, 2843, 2857, 2856, 2854, 2854]
ch0 : [2374, 2508, 2146, 2328, 2424, 2441, 2491, 2407, 2408, 2505]
ch1 : [3192, 3192, 3195, 3191, 3200, 3189, 3190, 3197, 3195, 3193]
ch2 : [475, 452, 450, 468, 462, 459, 453, 443, 445, 441]
ch3 : [2860, 2840, 2853, 2859, 2854, 2856, 2854, 2856, 2852, 2854]
ch0 : [2499, 2264, 2407, 2426, 2452, 2438, 2390, 2366, 2486, 2244]
ch1 : [3189, 3206, 3191, 3196, 3197, 3194, 3192, 3193, 3194, 3196]
ch2 : [418, 426, 456, 441, 431, 427, 421, 427, 416, 400]
ch3 : [2853, 2855, 2858, 2857, 2857, 2849, 2860, 2855, 2855, 2856]
ch0 : [2329, 2413, 2435, 2478, 2408, 2419, 2504, 2450, 2268, 2407]
ch1 : [3196, 3196, 3196, 3190, 3191, 3196, 3191, 3191, 3194, 3195]
ch2 : [421, 380, 416, 434, 391, 402, 420, 389, 395, 435]
ch3 : [2862, 2857, 2861, 2859, 2853, 2856, 2856, 2856, 2861, 2856]
ch0 : [2438, 2431, 2446, 2393, 2367, 2480, 2290, 2331, 2430, 2434]
ch1 : [3200, 3200, 3192, 3189, 3196, 3194, 3195, 3203, 3191, 3195]
ch2 : [374, 381, 410, 435, 357, 372, 382, 412, 445, 292]
ch3 : [2857, 2856, 2853, 2856, 2857, 2855, 2849, 2859, 2859, 2861]
ch0 : [2496, 2419, 2413, 2486, 2490, 2238, 2402, 2438, 2455, 2417]
ch1 : [3194, 3194, 3194, 3197, 3192, 3197, 3197, 3195, 3196, 3195]
ch2 : [306, 322, 342, 370, 452, 206, 228, 251, 265, 280]
ch3 : [2854, 2850, 2855, 2850, 2860, 2858, 2856, 2865, 2857, 2846]
ch0 : [2399, 2343, 2503, 2384, 2305, 2412, 2431, 2500, 2415, 2417]
ch1 : [3188, 3191, 3191, 3192, 3195, 3194, 3189, 3200, 3196, 3195]
ch2 : [294, 306, 329, 334, 366, 457, 201, 221, 234, 246]
ch3 : [2855, 2854, 2855, 2856, 2858, 2860, 2859, 2861, 2856, 2852]
ch0 : [2504, 2446, 2226, 2390, 2430, 2427, 2439, 2409, 2377, 2501]
ch1 : [3198, 3192, 3190, 3196, 3192, 3194, 3192, 3193, 3192, 3194]
ch2 : [253, 268, 274, 285, 301, 322, 337, 363, 452, 192]
ch3 : [2858, 2860, 2864, 2862, 2857, 2859, 2856, 2856, 2857, 2854]
ch0 : [2445, 2292, 2397, 2451, 2492, 2422, 2414, 2520, 2502, 2235]
ch1 : [3195, 3200, 3193, 3194, 3191, 3197, 3192, 3188, 3195, 3197]
ch2 : [213, 230, 244, 256, 266, 278, 292, 294, 311, 321]
ch3 : [2860, 2860, 2860, 2860, 2859, 2852, 2846, 2859, 2860, 2860]
ch0 : [2389, 2431, 2419, 2438, 2395, 2377, 2504, 2427, 2292, 2421]
ch1 : [3194, 3189, 3196, 3194, 3191, 3194, 3195, 3191, 3196, 3191]
ch2 : [339, 376, 534, 194, 224, 238, 248, 254, 268, 291]
ch3 : [2861, 2860, 2856, 2858, 2867, 2857, 2858, 2852, 2859, 2859]
ch0 : [2434, 2498, 2434, 2412, 2507, 2505, 2210, 2378, 2429, 2433]
ch1 : [3195, 3200, 3194, 3199, 3196, 3197, 3200, 3197, 3190, 3197]
ch2 : [310, 338, 378, 487, 208, 223, 240, 257, 290, 331]
ch3 : [2860, 2851, 2856, 2854, 2857, 2856, 2860, 2860, 2858, 2857]
ch0 : [2439, 2417, 2380, 2511, 2427, 2275, 2410, 2442, 2498, 2424]
ch1 : [3195, 3190, 3200, 3194, 3193, 3194, 3192, 3191, 3200, 3193]
ch2 : [379, 535, 224, 245, 259, 308, 400, 258, 306, 393]
ch3 : [2858, 2856, 2858, 2857, 2856, 2858, 2860, 2861, 2856, 2856]
ch0 : [2410, 2508, 2494, 2210, 2390, 2447, 2419, 2457, 2399, 2387]
ch1 : [3200, 3194, 3194, 3183, 3197, 3192, 3186, 3196, 3187, 3196]
ch2 : [310, 344, 476, 321, 467, 450, 497, 478, 484, 490]
ch3 : [2858, 2856, 2858, 2864, 2860, 2855, 2856, 2853, 2859, 2859]
ch0 : [2517, 2429, 2269, 2376, 2440, 2496, 2429, 2405, 2490, 2484]
ch1 : [3190, 3191, 3198, 3195, 3191, 3206, 3196, 3194, 3187, 3199]
ch2 : [481, 477, 510, 518, 521, 518, 519, 523, 527, 522]
ch3 : [2856, 2857, 2861, 2864, 2863, 2864, 2858, 2855, 2860, 2859]
ch0 : [2213, 2379, 2435, 2424, 2449, 2405, 2388, 2503, 2479, 2243]
ch1 : [3194, 3191, 3195, 3192, 3201, 3191, 3197, 3196, 3195, 3200]
ch2 : [526, 542, 549, 552, 553, 554, 560, 549, 551, 568]
ch3 : [2864, 2861, 2861, 2864, 2857, 2855, 2860, 2859, 2857, 2862]
ch0 : [2406, 2462, 2409, 2408, 2520, 2466, 2217, 2401, 2423, 2490]
ch1 : [3189, 3178, 3194, 3192, 3188, 3197, 3182, 3189, 3187, 3194]
ch2 : [601, 603, 604, 607, 598, 586, 612, 626, 624, 620]
ch3 : [2862, 2860, 2862, 2855, 2859, 2858, 2859, 2864, 2859, 2850]
ch0 : [2420, 2397, 2409, 2504, 2283, 2366, 2431, 2423, 2450, 2407]
ch1 : [3193, 3195, 3192, 3188, 3191, 3196, 3192, 3191, 3197, 3193]
ch2 : [623, 622, 625, 604, 598, 633, 643, 640, 641, 637]
ch3 : [2855, 2860, 2853, 2861, 2863, 2864, 2864, 2862, 2862, 2859]
ch0 : [2397, 2504, 2487, 2209, 2385, 2424, 2491, 2465, 2404, 2401]
ch1 : [3195, 3194, 3193, 3194, 3193, 3192, 3193, 3191, 3192, 3194]
ch2 : [639, 629, 621, 640, 655, 652, 652, 649, 650, 655]
ch3 : [2859, 2858, 2857, 2861, 2864, 2862, 2864, 2856, 2862, 2857]
ch0 : [2498, 2336, 2356, 2433, 2411, 2456, 2405, 2417, 2505, 2480]
ch1 : [3195, 3196, 3191, 3188, 3195, 3193, 3192, 3194, 3196, 3189]
ch2 : [639, 640, 662, 662, 666, 666, 659, 666, 650, 648]
ch3 : [2862, 2864, 2863, 2859, 2858, 2861, 2863, 2860, 2858, 2857]
ch0 : [2221, 2394, 2433, 2497, 2463, 2411, 2409, 2490, 2410, 2357]
ch1 : [3193, 3191, 3196, 3193, 3193, 3193, 3192, 3195, 3193, 3194]
ch2 : [664, 679, 679, 675, 671, 673, 677, 660, 658, 683]
ch3 : [2861, 2863, 2859, 2861, 2856, 2858, 2860, 2864, 2863, 2865]
ch0 : [2431, 2434, 2451, 2426, 2434, 2512, 2465, 2178, 2382, 2435]
ch1 : [3196, 3201, 3193, 3189, 3195, 3194, 3194, 3196, 3194, 3189]
ch2 : [683, 684, 685, 684, 686, 684, 668, 681, 701, 701]
ch3 : [2862, 2860, 2860, 2858, 2862, 2862, 2858, 2863, 2862, 2863]
ch0 : [2466, 2445, 2412, 2398, 2511, 2446, 2342, 2416, 2436, 2448]
ch1 : [3194, 3194, 3180, 3191, 3196, 3193, 3197, 3208, 3187, 3197]
ch2 : [693, 690, 689, 694, 677, 677, 698, 704, 700, 700]
ch3 : [2861, 2858, 2857, 2860, 2865, 2862, 2869, 2863, 2865, 2857]
ch0 : [2425, 2414, 2508, 2474, 2172, 2362, 2432, 2443, 2464, 2393]
ch1 : [3194, 3194, 3196, 3194, 3197, 3192, 3196, 3195, 3189, 3193]
ch2 : [691, 699, 693, 678, 694, 712, 708, 710, 701, 701]
ch3 : [2856, 2860, 2862, 2857, 2861, 2864, 2868, 2863, 2857, 2854]
ch0 : [2376, 2510, 2501, 2329, 2419, 2427, 2451, 2426, 2394, 2505]
ch1 : [3191, 3194, 3190, 3207, 3190, 3187, 3196, 3195, 3197, 3193]
ch2 : [701, 691, 690, 708, 718, 712, 717, 710, 705, 710]
ch3 : [2868, 2861, 2865, 2861, 2850, 2860, 2864, 2864, 2860, 2859]
ch0 : [2449, 2160, 2367, 2421, 2428, 2447, 2395, 2402, 2503, 2454]
ch1 : [3197, 3194, 3190, 3188, 3191, 3193, 3196, 3192, 3189, 3196]
ch2 : [695, 706, 722, 722, 731, 716, 717, 716, 706, 705]
ch3 : [2857, 2862, 2866, 2863, 2863, 2859, 2855, 2859, 2861, 2866]
ch0 : [2412, 2434, 2484, 2403, 2391, 2507, 2442, 2312, 2406, 2419]
ch1 : [3195, 3196, 3193, 3196, 3193, 3192, 3194, 3198, 3204, 3194]
ch2 : [735, 731, 723, 728, 731, 720, 711, 732, 741, 743]
ch3 : [2864, 2862, 2864, 2859, 2859, 2859, 2865, 2861, 2863, 2862]
ch0 : [2443, 2440, 2372, 2463, 2502, 2110, 2344, 2425, 2431, 2458]
ch1 : [3194, 3197, 3192, 3196, 3195, 3193, 3190, 3191, 3190, 3191]
ch2 : [731, 734, 732, 736, 715, 726, 746, 750, 741, 740]
ch3 : [2863, 2860, 2859, 2865, 2853, 2863, 2863, 2864, 2860, 2858]
ch0 : [2394, 2409, 2499, 2447, 2293, 2418, 2413, 2450, 2425, 2399]
ch1 : [3196, 3191, 3191, 3203, 3192, 3193, 3191, 3194, 3191, 3193]
ch2 : [739, 739, 729, 720, 740, 749, 745, 746, 743, 741]
ch3 : [2862, 2861, 2860, 2857, 2864, 2863, 2861, 2863, 2868, 2860]
ch0 : [2382, 2495, 2116, 2326, 2411, 2437, 2466, 2403, 2409, 2492]
ch1 : [3192, 3192, 3194, 3193, 3193, 3192, 3193, 3192, 3192, 3192]
ch2 : [746, 724, 727, 753, 751, 747, 742, 740, 749, 738]
ch3 : [2858, 2859, 2859, 2863, 2863, 2865, 2858, 2858, 2859, 2859]
ch0 : [2463, 2298, 2411, 2437, 2470, 2440, 2392, 2377, 2445, 2169]
ch1 : [3196, 3190, 3181, 3194, 3191, 3195, 3195, 3194, 3200, 3197]
ch2 : [731, 749, 760, 758, 755, 754, 754, 753, 734, 740]
ch3 : [2862, 2860, 2858, 2864, 2859, 2861, 2862, 2861, 2861, 2861]
ch0 : [2345, 2426, 2442, 2489, 2420, 2441, 2508, 2486, 2295, 2424]
ch1 : [3191, 3194, 3193, 3196, 3196, 3192, 3193, 3191, 3194, 3193]
ch2 : [764, 766, 760, 759, 754, 758, 750, 747, 755, 770]
ch3 : [2866, 2863, 2862, 2869, 2859, 2860, 2862, 2862, 2875, 2867]
ch0 : [2459, 2483, 2445, 2398, 2385, 2505, 2228, 2348, 2430, 2464]
ch1 : [3194, 3193, 3187, 3194, 3195, 3192, 3195, 3193, 3194, 3187]
ch2 : [766, 763, 773, 763, 764, 748, 750, 775, 772, 770]
ch3 : [2860, 2863, 2861, 2860, 2862, 2860, 2860, 2866, 2868, 2864]
ch0 : [2478, 2422, 2450, 2512, 2500, 2295, 2420, 2439, 2468, 2464]
ch1 : [3189, 3190, 3193, 3194, 3191, 3193, 3193, 3196, 3193, 3194]
ch2 : [766, 767, 769, 750, 748, 768, 780, 778, 777, 768]
ch3 : [2863, 2858, 2864, 2866, 2866, 2863, 2867, 2874, 2864, 2864]
ch0 : [2418, 2391, 2503, 2318, 2326, 2438, 2462, 2494, 2431, 2448]
ch1 : [3197, 3191, 3194, 3197, 3192, 3187, 3191, 3187, 3191, 3196]
ch2 : [772, 775, 756, 748, 785, 790, 785, 774, 778, 777]
ch3 : [2862, 2865, 2865, 2860, 2868, 2866, 2866, 2864, 2859, 2858]
ch0 : [2513, 2499, 2270, 2421, 2445, 2458, 2460, 2414, 2380, 2516]
ch1 : [3188, 3192, 3196, 3193, 3193, 3193, 3191, 3191, 3191, 3193]
ch2 : [774, 761, 774, 790, 789, 783, 789, 784, 789, 770]
ch3 : [2863, 2862, 2856, 2866, 2865, 2856, 2863, 2865, 2868, 2865]
ch0 : [2387, 2440, 2440, 2453, 2410, 2370, 2506, 2417, 2308, 2421]
ch1 : [3191, 3191, 3192, 3189, 3195, 3190, 3195, 3197, 3200, 3191]
ch2 : [806, 806, 808, 802, 802, 805, 783, 775, 816, 812]
ch3 : [2864, 2866, 2866, 2872, 2862, 2869, 2862, 2865, 2870, 2867]
ch0 : [2446, 2503, 2436, 2433, 2512, 2496, 2238, 2412, 2432, 2435]
ch1 : [3195, 3193, 3195, 3193, 3192, 3195, 3192, 3188, 3192, 3193]
ch2 : [811, 805, 796, 793, 793, 779, 797, 810, 802, 803]
ch3 : [2865, 2864, 2863, 2859, 2860, 2865, 2871, 2857, 2862, 2866]
ch0 : [2463, 2413, 2384, 2515, 2455, 2280, 2421, 2435, 2512, 2434]
ch1 : [3191, 3193, 3194, 3187, 3193, 3189, 3192, 3192, 3186, 3188]
ch2 : [803, 801, 801, 781, 773, 807, 815, 803, 797, 790]
ch3 : [2865, 2866, 2866, 2864, 2868, 2868, 2869, 2867, 2867, 2864]
ch0 : [2410, 2500, 2468, 2258, 2404, 2443, 2443, 2449, 2428, 2402]
ch1 : [3192, 3191, 3191, 3196, 3190, 3191, 3192, 3194, 3192, 3193]
ch2 : [793, 792, 772, 787, 799, 802, 800, 802, 786, 785]
ch3 : [2861, 2865, 2869, 2870, 2872, 2863, 2867, 2865, 2866, 2865]
ch0 : [2518, 2451, 2289, 2420, 2449, 2507, 2440, 2428, 2512, 2515]
ch1 : [3195, 3196, 3193, 3194, 3193, 3189, 3201, 3192, 3189, 3189]
ch2 : [772, 766, 790, 802, 794, 785, 777, 780, 786, 760]
ch3 : [2866, 2862, 2866, 2869, 2877, 2857, 2859, 2865, 2866, 2868]
ch0 : [2242, 2394, 2451, 2436, 2477, 2444, 2399, 2515, 2481, 2281]
ch1 : [3194, 3194, 3201, 3191, 3191, 3192, 3192, 3195, 3190, 3197]
ch2 : [771, 789, 782, 776, 767, 764, 769, 756, 741, 765]
ch3 : [2871, 2872, 2869, 2859, 2864, 2867, 2869, 2865, 2868, 2868]
ch0 : [2434, 2453, 2514, 2451, 2438, 2514, 2518, 2207, 2387, 2450]
ch1 : [3194, 3186, 3195, 3192, 3192, 3199, 3193, 3194, 3200, 3200]
ch2 : [766, 757, 754, 742, 741, 736, 713, 712, 738, 741]
ch3 : [2871, 2870, 2868, 2864, 2859, 2872, 2866, 2869, 2855, 2865]
ch0 : [2440, 2455, 2416, 2406, 2511, 2458, 2271, 2416, 2451, 2510]
ch1 : [3204, 3195, 3197, 3193, 3195, 3192, 3193, 3196, 3190, 3183]
ch2 : [735, 724, 719, 715, 715, 693, 711, 722, 711, 703]
ch3 : [2871, 2862, 2865, 2864, 2866, 2857, 2870, 2870, 2867, 2867]
ch0 : [2449, 2401, 2480, 2514, 2250, 2389, 2455, 2438, 2468, 2437]
ch1 : [3196, 3189, 3195, 3192, 3194, 3193, 3195, 3192, 3195, 3194]
ch2 : [697, 694, 688, 666, 660, 680, 680, 680, 666, 654]
ch3 : [2865, 2862, 2860, 2868, 2867, 2874, 2868, 2870, 2864, 2871]
ch0 : [2410, 2520, 2510, 2241, 2407, 2453, 2508, 2445, 2405, 2441]
ch1 : [3194, 3194, 3194, 3193, 3186, 3193, 3196, 3193, 3193, 3198]
ch2 : [651, 638, 617, 626, 636, 637, 614, 602, 596, 603]
ch3 : [2860, 2867, 2864, 2868, 2869, 2872, 2868, 2863, 2861, 2865]
ch0 : [2236, 2412, 2447, 2492, 2477, 2434, 2424, 2522, 2374, 2367]
ch1 : [3195, 3196, 3194, 3197, 3196, 3195, 3195, 3194, 3196, 3194]
ch2 : [546, 560, 556, 535, 529, 531, 521, 493, 491, 507]
ch3 : [2869, 2868, 2869, 2862, 2862, 2853, 2872, 2868, 2858, 2871]
ch0 : [2444, 2442, 2457, 2426, 2434, 2520, 2411, 2234, 2407, 2452]
ch1 : [3210, 3195, 3195, 3197, 3194, 3191, 3195, 3194, 3196, 3194]
ch2 : [503, 498, 492, 481, 476, 461, 446, 463, 469, 459]
ch3 : [2878, 2870, 2868, 2867, 2854, 2869, 2865, 2871, 2872, 2873]
ch0 : [2507, 2463, 2419, 2419, 2518, 2428, 2380, 2450, 2444, 2476]
ch1 : [3198, 3194, 3194, 3196, 3191, 3186, 3193, 3200, 3194, 3193]
ch2 : [454, 429, 419, 427, 416, 390, 396, 443, 361, 359]
ch3 : [2871, 2866, 2867, 2868, 2867, 2870, 2876, 2867, 2870, 2870]
ch0 : [2445, 2471, 2524, 2469, 2233, 2417, 2462, 2505, 2474, 2437]
ch1 : [3195, 3194, 3194, 3195, 3197, 3200, 3193, 3193, 3193, 3191]
ch2 : [375, 394, 413, 349, 346, 356, 377, 424, 213, 233]
ch3 : [2868, 2870, 2870, 2868, 2870, 2872, 2870, 2871, 2866, 2869]
ch0 : [2420, 2518, 2429, 2373, 2448, 2455, 2469, 2431, 2434, 2525]
ch1 : [3191, 3194, 3192, 3195, 3193, 3196, 3187, 3195, 3197, 3193]
ch2 : [256, 250, 256, 264, 274, 280, 282, 286, 290, 295]
ch3 : [2869, 2868, 2861, 2876, 2869, 2871, 2873, 2864, 2870, 2863]
ch0 : [2520, 2220, 2406, 2456, 2471, 2499, 2446, 2423, 2524, 2478]
ch1 : [3193, 3196, 3196, 3195, 3191, 3194, 3195, 3180, 3193, 3196]
ch2 : [303, 304, 309, 301, 326, 328, 329, 338, 345, 364]
ch3 : [2862, 2868, 2866, 2867, 2874, 2868, 2867, 2867, 2871, 2871]
ch0 : [2362, 2459, 2457, 2480, 2472, 2446, 2517, 2525, 2194, 2411]
ch1 : [3194, 3195, 3192, 3192, 3193, 3194, 3191, 3197, 3194, 3191]
ch2 : [455, 174, 200, 216, 227, 248, 257, 249, 256, 256]
ch3 : [2869, 2863, 2868, 2870, 2867, 2868, 2867, 2862, 2863, 2870]
ch0 : [2458, 2469, 2491, 2454, 2425, 2521, 2482, 2349, 2456, 2469]
ch1 : [3190, 3189, 3196, 3194, 3203, 3199, 3190, 3186, 3190, 3196]
ch2 : [262, 264, 272, 274, 274, 281, 287, 286, 293, 292]
ch3 : [2871, 2870, 2863, 2872, 2865, 2864, 2860, 2868, 2866, 2871]
ch0 : [2467, 2456, 2430, 2525, 2498, 2172, 2392, 2451, 2466, 2482]
ch1 : [3184, 3195, 3187, 3193, 3194, 3196, 3193, 3197, 3197, 3197]
ch2 : [292, 296, 301, 306, 303, 314, 315, 316, 321, 325]
ch3 : [2864, 2865, 2865, 2867, 2862, 2863, 2869, 2868, 2867, 2860]
ch0 : [2423, 2426, 2520, 2487, 2353, 2444, 2450, 2488, 2451, 2433]
ch1 : [3179, 3200, 3187, 3192, 3190, 3194, 3194, 3196, 3197, 3192]
ch2 : [330, 339, 342, 361, 423, 158, 197, 216, 222, 235]
