device found = /dev/cu.usbmodem14433
ch0 : [2275, 2431, 2185, 2179, 2281, 2295, 2325, 2317, 2317, 2425]
ch1 : [3193, 3192, 3194, 3200, 3192, 3193, 3193, 3193, 3192, 3192]
ch2 : [1404, 1385, 1381, 1408, 1405, 1403, 1399, 1398, 1397, 1395]
ch3 : [2902, 2899, 2898, 2905, 2903, 2904, 2900, 2901, 2902, 2901]
ch0 : [2356, 2121, 2252, 2256, 2264, 2273, 2269, 2238, 2400, 2251]
ch1 : [3192, 3198, 3194, 3195, 3194, 3191, 3191, 3193, 3184, 3191]
ch2 : [1387, 1398, 1393, 1406, 1405, 1400, 1403, 1401, 1392, 1382]
ch3 : [2901, 2908, 2906, 2899, 2903, 2904, 2902, 2904, 2902, 2900]
ch0 : [2166, 2252, 2295, 2372, 2293, 2305, 2412, 2376, 2123, 2260]
ch1 : [3200, 3197, 3192, 3191, 3193, 3195, 3187, 3194, 3194, 3197]
ch2 : [1415, 1407, 1406, 1405, 1402, 1400, 1393, 1385, 1394, 1404]
ch3 : [2906, 2914, 2902, 2903, 2901, 2915, 2902, 2905, 2905, 2908]
ch0 : [2307, 2292, 2306, 2303, 2239, 2399, 2318, 2171, 2310, 2313]
ch1 : [3195, 3193, 3197, 3193, 3207, 3196, 3195, 3195, 3193, 3195]
ch2 : [1404, 1403, 1400, 1399, 1401, 1387, 1381, 1403, 1414, 1398]
ch3 : [2903, 2905, 2904, 2905, 2905, 2904, 2902, 2909, 2911, 2912]
ch0 : [2347, 2283, 2291, 2414, 2345, 2104, 2252, 2297, 2294, 2314]
ch1 : [3191, 3192, 3195, 3196, 3197, 3199, 3194, 3196, 3197, 3194]
ch2 : [1400, 1402, 1401, 1399, 1387, 1391, 1399, 1403, 1403, 1403]
ch3 : [2905, 2907, 2906, 2908, 2906, 2906, 2908, 2910, 2911, 2917]
ch0 : [2266, 2224, 2414, 2311, 2147, 2276, 2295, 2358, 2270, 2252]
ch1 : [3195, 3194, 3185, 3195, 3191, 3197, 3194, 3193, 3191, 3195]
ch2 : [1400, 1401, 1388, 1385, 1405, 1405, 1405, 1410, 1398, 1398]
ch3 : [2908, 2906, 2908, 2905, 2907, 2911, 2908, 2908, 2907, 2909]
ch0 : [2410, 2352, 2096, 2251, 2298, 2282, 2326, 2284, 2265, 2375]
ch1 : [3194, 3191, 3193, 3195, 3196, 3197, 3197, 3191, 3198, 3181]
ch2 : [1398, 1383, 1391, 1402, 1403, 1404, 1402, 1401, 1399, 1389]
ch3 : [2907, 2906, 2911, 2911, 2913, 2909, 2900, 2909, 2909, 2907]
ch0 : [2345, 2155, 2301, 2336, 2400, 2325, 2318, 2416, 2371, 2139]
ch1 : [3194, 3177, 3195, 3198, 3197, 3195, 3194, 3196, 3200, 3194]
ch2 : [1380, 1404, 1408, 1398, 1399, 1401, 1386, 1399, 1388, 1392]
ch3 : [2912, 2906, 2909, 2910, 2909, 2907, 2906, 2896, 2907, 2908]
ch0 : [2280, 2396, 2329, 2310, 2296, 2306, 2381, 2342, 2193, 2353]
ch1 : [3205, 3189, 3195, 3196, 3187, 3197, 3193, 3200, 3196, 3191]
ch2 : [1405, 1404, 1398, 1413, 1399, 1402, 1390, 1385, 1402, 1409]
ch3 : [2921, 2911, 2910, 2908, 2910, 2905, 2902, 2900, 2909, 2913]
ch0 : [2316, 2420, 2371, 2304, 2408, 2409, 2129, 2199, 2285, 2252]
ch1 : [3194, 3197, 3191, 3197, 3189, 3195, 3197, 3199, 3194, 3193]
ch2 : [1405, 1404, 1403, 1401, 1406, 1389, 1394, 1406, 1406, 1401]
ch3 : [2911, 2909, 2906, 2896, 2909, 2912, 2907, 2910, 2907, 2910]
ch0 : [2334, 2277, 2233, 2428, 2377, 2128, 2274, 2317, 2418, 2262]
ch1 : [3195, 3193, 3204, 3194, 3207, 3194, 3197, 3194, 3194, 3195]
ch2 : [1402, 1406, 1404, 1409, 1386, 1402, 1410, 1407, 1407, 1399]
ch3 : [2907, 2905, 2908, 2907, 2904, 2899, 2912, 2907, 2908, 2904]
ch0 : [2253, 2388, 2397, 2101, 2312, 2351, 2332, 2313, 2287, 2322]
ch1 : [3196, 3192, 3188, 3196, 3195, 3191, 3195, 3198, 3197, 3196]
ch2 : [1400, 1401, 1389, 1396, 1404, 1411, 1420, 1403, 1403, 1403]
ch3 : [2907, 2908, 2899, 2907, 2908, 2910, 2909, 2908, 2907, 2908]
ch0 : [2431, 2241, 2163, 2336, 2331, 2419, 2351, 2283, 2387, 2441]
ch1 : [3192, 3205, 3194, 3193, 3200, 3193, 3192, 3194, 3185, 3190]
ch2 : [1393, 1377, 1401, 1407, 1405, 1404, 1401, 1402, 1401, 1388]
ch3 : [2906, 2908, 2906, 2907, 2907, 2908, 2904, 2905, 2905, 2906]
ch0 : [2226, 2300, 2353, 2332, 2355, 2325, 2312, 2445, 2340, 2158]
ch1 : [3196, 3194, 3200, 3192, 3190, 3197, 3198, 3193, 3194, 3197]
ch2 : [1390, 1406, 1407, 1401, 1400, 1403, 1401, 1391, 1382, 1399]
ch3 : [2903, 2912, 2906, 2908, 2906, 2906, 2908, 2905, 2907, 2905]
ch0 : [2316, 2325, 2434, 2341, 2286, 2277, 2374, 2185, 2223, 2291]
ch1 : [3205, 3194, 3194, 3194, 3197, 3193, 3194, 3187, 3192, 3196]
ch2 : [1409, 1403, 1402, 1399, 1399, 1399, 1389, 1386, 1403, 1410]
ch3 : [2901, 2909, 2908, 2905, 2903, 2909, 2907, 2907, 2906, 2921]
ch0 : [2308, 2335, 2336, 2316, 2436, 2343, 2127, 2306, 2319, 2384]
ch1 : [3194, 3193, 3195, 3196, 3192, 3195, 3197, 3198, 3193, 3192]
ch2 : [1391, 1410, 1394, 1405, 1405, 1382, 1398, 1407, 1404, 1399]
ch3 : [2909, 2909, 2907, 2907, 2905, 2905, 2907, 2910, 2917, 2909]
ch0 : [2361, 2297, 2326, 2440, 2297, 2298, 2356, 2362, 2343, 2328]
ch1 : [3192, 3194, 3195, 3198, 3193, 3196, 3195, 3197, 3191, 3196]
ch2 : [1400, 1399, 1396, 1393, 1371, 1402, 1404, 1402, 1401, 1403]
ch3 : [2906, 2905, 2908, 2904, 2908, 2908, 2907, 2904, 2906, 2906]
ch0 : [2331, 2448, 2337, 2085, 2288, 2322, 2380, 2369, 2305, 2300]
ch1 : [3197, 3190, 3196, 3194, 3197, 3195, 3195, 3194, 3196, 3192]
ch2 : [1403, 1399, 1388, 1394, 1405, 1411, 1401, 1400, 1401, 1399]
ch3 : [2906, 2907, 2903, 2902, 2907, 2908, 2909, 2903, 2903, 2907]
ch0 : [2421, 2308, 2246, 2306, 2299, 2315, 2300, 2297, 2434, 2346]
ch1 : [3192, 3198, 3194, 3193, 3190, 3197, 3197, 3194, 3195, 3196]
ch2 : [1389, 1381, 1405, 1402, 1404, 1401, 1401, 1401, 1393, 1381]
ch3 : [2905, 2903, 2903, 2904, 2904, 2904, 2904, 2904, 2902, 2901]
ch0 : [2053, 2255, 2323, 2360, 2334, 2285, 2270, 2407, 2342, 2225]
ch1 : [3198, 3196, 3194, 3193, 3193, 3195, 3192, 3195, 3196, 3199]
ch2 : [1396, 1406, 1405, 1404, 1397, 1400, 1402, 1386, 1385, 1401]
ch3 : [2906, 2905, 2904, 2892, 2905, 2899, 2903, 2900, 2904, 2902]
ch0 : [2321, 2320, 2279, 2264, 2424, 2323, 2202, 2296, 2282, 2299]
ch1 : [3200, 3195, 3194, 3189, 3200, 3197, 3194, 3186, 3190, 3194]
ch2 : [1407, 1412, 1400, 1402, 1388, 1388, 1406, 1404, 1409, 1403]
ch3 : [2904, 2901, 2900, 2900, 2903, 2888, 2916, 2902, 2904, 2898]
ch0 : [2266, 2261, 2419, 2302, 2028, 2229, 2293, 2285, 2300, 2248]
ch1 : [3195, 3195, 3194, 3196, 3197, 3197, 3197, 3193, 3201, 3189]
ch2 : [1399, 1401, 1398, 1379, 1392, 1406, 1403, 1401, 1394, 1398]
ch3 : [2901, 2900, 2900, 2895, 2901, 2904, 2900, 2905, 2900, 2896]
ch0 : [2258, 2351, 2287, 2196, 2290, 2304, 2312, 2293, 2257, 2405]
ch1 : [3184, 3192, 3191, 3196, 3194, 3196, 3193, 3193, 3193, 3193]
ch2 : [1399, 1380, 1385, 1401, 1401, 1403, 1399, 1399, 1398, 1405]
ch3 : [2903, 2898, 2899, 2901, 2901, 2901, 2897, 2901, 2900, 2903]
ch0 : [2351, 2010, 2243, 2293, 2319, 2337, 2279, 2259, 2412, 2350]
ch1 : [3192, 3196, 3194, 3196, 3195, 3195, 3194, 3202, 3187, 3193]
ch2 : [1379, 1389, 1404, 1405, 1404, 1400, 1397, 1401, 1400, 1385]
ch3 : [2901, 2900, 2900, 2904, 2905, 2901, 2900, 2900, 2904, 2898]
ch0 : [2215, 2313, 2309, 2322, 2313, 2279, 2412, 2397, 2019, 2244]
ch1 : [3199, 3197, 3194, 3192, 3193, 3190, 3191, 3196, 3200, 3198]
ch2 : [1401, 1405, 1403, 1399, 1401, 1401, 1400, 1379, 1392, 1406]
ch3 : [2905, 2902, 2905, 2900, 2899, 2889, 2894, 2899, 2896, 2900]
ch0 : [2288, 2310, 2357, 2288, 2284, 2417, 2392, 2189, 2278, 2287]
ch1 : [3187, 3194, 3193, 3196, 3196, 3197, 3197, 3195, 3195, 3193]
ch2 : [1406, 1401, 1416, 1401, 1404, 1393, 1390, 1404, 1403, 1407]
ch3 : [2902, 2895, 2898, 2899, 2900, 2898, 2896, 2899, 2902, 2904]
ch0 : [2333, 2303, 2264, 2336, 2333, 1982, 2226, 2246, 2297, 2318]
ch1 : [3193, 3188, 3196, 3196, 3195, 3198, 3197, 3197, 3195, 3189]
ch2 : [1405, 1413, 1388, 1409, 1381, 1395, 1409, 1411, 1406, 1401]
ch3 : [2900, 2901, 2900, 2902, 2898, 2900, 2905, 2906, 2903, 2901]
ch0 : [2257, 2292, 1975, 2206, 2263, 2297, 2304, 2247, 2252, 2412]
ch1 : [3197, 3193, 3196, 3194, 3192, 3192, 3199, 3195, 3192, 3193]
ch2 : [1405, 1386, 1395, 1412, 1413, 1409, 1403, 1408, 1395, 1392]
ch3 : [2902, 2900, 2900, 2901, 2908, 2908, 2903, 2902, 2906, 2897]
ch0 : [2313, 2171, 2258, 2289, 2331, 2290, 2266, 2247, 2302, 1991]
ch1 : [3197, 3196, 3194, 3195, 3197, 3192, 3195, 3192, 3197, 3201]
ch2 : [1393, 1408, 1412, 1421, 1407, 1401, 1407, 1411, 1391, 1381]
ch3 : [2900, 2910, 2907, 2903, 2903, 2904, 2907, 2903, 2905, 2899]
ch0 : [2227, 2279, 2320, 2352, 2261, 2289, 2390, 2381, 2169, 2291]
ch1 : [3193, 3195, 3194, 3192, 3198, 3193, 3192, 3191, 3195, 3195]
ch2 : [1411, 1413, 1406, 1404, 1405, 1404, 1392, 1395, 1399, 1409]
ch3 : [2905, 2909, 2904, 2901, 2900, 2899, 2902, 2901, 2906, 2904]
ch0 : [2316, 2346, 2315, 2280, 2263, 2355, 2036, 2232, 2321, 2330]
ch1 : [3198, 3187, 3192, 3195, 3194, 3193, 3200, 3195, 3195, 3196]
ch2 : [1407, 1406, 1404, 1403, 1402, 1389, 1395, 1407, 1414, 1398]
ch3 : [2903, 2902, 2902, 2905, 2904, 2899, 2901, 2905, 2903, 2904]
ch0 : [2343, 2300, 2307, 2423, 2343, 2189, 2287, 2304, 2350, 2336]
ch1 : [3194, 3193, 3193, 3193, 3189, 3195, 3196, 3196, 3197, 3197]
ch2 : [1402, 1400, 1400, 1394, 1388, 1407, 1408, 1408, 1405, 1404]
ch3 : [2901, 2910, 2903, 2902, 2900, 2903, 2909, 2906, 2904, 2910]
ch0 : [2282, 2268, 2384, 2078, 2241, 2312, 2328, 2368, 2295, 2295]
ch1 : [3204, 3194, 3187, 3198, 3194, 3194, 3196, 3192, 3192, 3193]
ch2 : [1416, 1404, 1389, 1397, 1407, 1411, 1405, 1406, 1401, 1404]
ch3 : [2904, 2904, 2903, 2900, 2903, 2906, 2904, 2902, 2900, 2901]
ch0 : [2426, 2354, 2167, 2298, 2320, 2353, 2333, 2282, 2263, 2423]
ch1 : [3194, 3189, 3198, 3192, 3197, 3196, 3191, 3196, 3195, 3187]
ch2 : [1396, 1386, 1400, 1408, 1402, 1405, 1401, 1407, 1399, 1388]
ch3 : [2898, 2900, 2898, 2900, 2901, 2900, 2903, 2900, 2905, 2897]
ch0 : [2122, 2229, 2306, 2327, 2370, 2307, 2324, 2429, 2390, 2177]
ch1 : [3197, 3195, 3195, 3190, 3194, 3201, 3198, 3193, 3186, 3196]
ch2 : [1386, 1401, 1409, 1406, 1408, 1402, 1396, 1395, 1382, 1398]
ch3 : [2899, 2902, 2904, 2903, 2901, 2907, 2902, 2902, 2902, 2901]
ch0 : [2292, 2332, 2346, 2340, 2287, 2262, 2382, 2193, 2218, 2312]
ch1 : [3179, 3185, 3193, 3193, 3191, 3193, 3192, 3195, 3190, 3197]
ch2 : [1407, 1405, 1408, 1404, 1402, 1406, 1386, 1386, 1405, 1409]
ch3 : [2901, 2904, 2907, 2904, 2895, 2899, 2901, 2902, 2899, 2900]
ch0 : [2335, 2265, 2258, 2361, 2216, 2196, 2297, 2333, 2374, 2304]
ch1 : [3196, 3192, 3186, 3196, 3197, 3197, 3191, 3195, 3195, 3196]
ch2 : [1401, 1404, 1399, 1387, 1377, 1405, 1405, 1400, 1396, 1399]
ch3 : [2882, 2900, 2890, 2900, 2891, 2904, 2907, 2898, 2897, 2892]
ch0 : [2297, 2420, 2309, 2139, 2287, 2314, 2315, 2306, 2293, 2269]
ch1 : [3193, 3195, 3194, 3191, 3195, 3197, 3192, 3200, 3192, 3193]
ch2 : [1402, 1382, 1382, 1413, 1403, 1405, 1402, 1402, 1404, 1405]
ch3 : [2900, 2898, 2887, 2891, 2890, 2887, 2892, 2904, 2895, 2894]
ch0 : [2419, 2284, 2188, 2288, 2314, 2380, 2303, 2309, 2426, 2395]
ch1 : [3193, 3194, 3192, 3191, 3195, 3192, 3193, 3192, 3193, 3192]
ch2 : [1389, 1386, 1404, 1406, 1401, 1401, 1400, 1404, 1398, 1372]
ch3 : [2884, 2882, 2894, 2895, 2892, 2877, 2895, 2887, 2887, 2879]
ch0 : [2124, 2275, 2308, 2315, 2340, 2271, 2232, 2423, 2337, 2172]
ch1 : [3196, 3193, 3200, 3196, 3194, 3191, 3195, 3193, 3197, 3197]
ch2 : [1392, 1421, 1406, 1405, 1399, 1407, 1404, 1391, 1392, 1406]
ch3 : [2894, 2899, 2894, 2882, 2876, 2879, 2895, 2903, 2889, 2877]
ch0 : [2296, 2323, 2357, 2330, 2293, 2425, 2360, 2137, 2284, 2311]
ch1 : [3192, 3194, 3196, 3197, 3187, 3192, 3196, 3196, 3192, 3195]
ch2 : [1409, 1410, 1402, 1403, 1401, 1399, 1393, 1397, 1405, 1413]
ch3 : [2880, 2883, 2871, 2887, 2897, 2893, 2873, 2876, 2885, 2881]
ch0 : [2293, 2324, 2282, 2244, 2404, 2300, 2164, 2287, 2311, 2394]
ch1 : [3196, 3193, 3192, 3196, 3192, 3191, 3191, 3196, 3190, 3192]
ch2 : [1405, 1407, 1406, 1405, 1385, 1376, 1406, 1408, 1406, 1405]
ch3 : [2880, 2884, 2887, 2887, 2884, 2878, 2869, 2865, 2888, 2878]
ch0 : [2299, 2296, 2421, 2352, 2113, 2286, 2325, 2302, 2320, 2294]
ch1 : [3193, 3193, 3192, 3193, 3193, 3192, 3195, 3194, 3197, 3192]
ch2 : [1402, 1400, 1397, 1387, 1395, 1409, 1404, 1404, 1400, 1405]
ch3 : [2875, 2872, 2869, 2879, 2865, 2871, 2862, 2866, 2867, 2866]
ch0 : [2247, 2425, 2323, 2162, 2294, 2323, 2400, 2312, 2295, 2419]
ch1 : [3185, 3196, 3194, 3199, 3190, 3194, 3191, 3193, 3196, 3192]
ch2 : [1396, 1388, 1386, 1402, 1388, 1403, 1401, 1398, 1396, 1402]
ch3 : [2862, 2847, 2858, 2859, 2859, 2857, 2852, 2849, 2849, 2847]
ch0 : [2405, 2086, 2264, 2322, 2304, 2329, 2296, 2274, 2417, 2386]
ch1 : [3192, 3209, 3197, 3194, 3193, 3205, 3196, 3200, 3193, 3192]
ch2 : [1386, 1391, 1397, 1402, 1401, 1402, 1400, 1399, 1389, 1382]
ch3 : [2841, 2839, 2836, 2845, 2845, 2855, 2841, 2837, 2834, 2833]
ch0 : [2146, 2289, 2322, 2401, 2332, 2290, 2398, 2401, 2109, 2256]
ch1 : [3188, 3195, 3199, 3194, 3193, 3192, 3192, 3196, 3196, 3196]
ch2 : [1402, 1405, 1403, 1401, 1399, 1401, 1401, 1388, 1388, 1403]
ch3 : [2836, 2837, 2828, 2829, 2816, 2818, 2828, 2824, 2824, 2810]
ch0 : [2316, 2317, 2335, 2298, 2279, 2414, 2321, 2153, 2287, 2320]
ch1 : [3195, 3195, 3196, 3189, 3194, 3192, 3195, 3195, 3196, 3195]
ch2 : [1409, 1404, 1401, 1409, 1398, 1393, 1388, 1401, 1408, 1407]
ch3 : [2820, 2812, 2805, 2810, 2804, 2804, 2803, 2798, 2804, 2802]
ch0 : [2416, 2305, 2291, 2347, 2391, 2122, 2256, 2311, 2312, 2341]
ch1 : [3194, 3196, 3191, 3187, 3193, 3195, 3190, 3198, 3210, 3194]
ch2 : [1405, 1417, 1408, 1404, 1395, 1390, 1396, 1411, 1411, 1411]
ch3 : [2796, 2796, 2794, 2794, 2792, 2784, 2784, 2793, 2785, 2782]
ch0 : [2286, 2293, 2421, 2393, 2130, 2279, 2315, 2399, 2341, 2282]
ch1 : [3193, 3193, 3191, 3193, 3195, 3204, 3194, 3182, 3193, 3200]
ch2 : [1408, 1409, 1399, 1392, 1412, 1416, 1418, 1415, 1405, 1413]
ch3 : [2777, 2767, 2757, 2764, 2763, 2774, 2766, 2768, 2754, 2757]
ch0 : [2321, 2419, 2155, 2256, 2317, 2310, 2315, 2300, 2275, 2426]
ch1 : [3195, 3191, 3196, 3198, 3195, 3190, 3192, 3194, 3186, 3193]
ch2 : [1417, 1396, 1406, 1415, 1417, 1416, 1411, 1414, 1419, 1402]
ch3 : [2750, 2753, 2746, 2749, 2748, 2757, 2747, 2748, 2746, 2740]
ch0 : [2347, 2125, 2274, 2311, 2386, 2322, 2280, 2289, 2398, 2218]
ch1 : [3191, 3196, 3190, 3194, 3192, 3195, 3195, 3196, 3197, 3200]
ch2 : [1399, 1417, 1423, 1421, 1417, 1418, 1416, 1419, 1407, 1410]
ch3 : [2747, 2732, 2740, 2746, 2736, 2731, 2727, 2729, 2722, 2722]
ch0 : [2245, 2297, 2300, 2320, 2291, 2293, 2415, 2344, 2092, 2256]
ch1 : [3192, 3193, 3195, 3196, 3194, 3193, 3187, 3197, 3199, 3195]
ch2 : [1424, 1420, 1426, 1428, 1427, 1429, 1420, 1407, 1423, 1438]
ch3 : [2729, 2725, 2724, 2718, 2721, 2717, 2717, 2708, 2712, 2713]
ch0 : [2312, 2383, 2317, 2285, 2283, 2412, 2235, 2242, 2292, 2304]
ch1 : [3195, 3192, 3194, 3201, 3203, 3198, 3195, 3194, 3195, 3197]
ch2 : [1432, 1431, 1429, 1428, 1430, 1418, 1418, 1438, 1437, 1435]
ch3 : [2713, 2715, 2709, 2709, 2707, 2709, 2707, 2707, 2707, 2708]
ch0 : [2315, 2280, 2271, 2417, 2278, 2080, 2256, 2297, 2367, 2323]
ch1 : [3193, 3191, 3183, 3190, 3186, 3197, 3197, 3199, 3185, 3195]
ch2 : [1435, 1434, 1437, 1426, 1415, 1434, 1443, 1442, 1439, 1435]
ch3 : [2703, 2703, 2700, 2700, 2699, 2702, 2710, 2714, 2705, 2698]
ch0 : [2281, 2287, 2388, 2257, 2230, 2303, 2297, 2303, 2292, 2299]
ch1 : [3195, 3195, 3194, 3195, 3196, 3188, 3196, 3187, 3192, 3192]
ch2 : [1439, 1436, 1426, 1430, 1448, 1446, 1451, 1442, 1444, 1447]
ch3 : [2702, 2704, 2705, 2701, 2711, 2702, 2706, 2707, 2709, 2706]
ch0 : [2414, 2402, 2082, 2252, 2299, 2334, 2318, 2277, 2276, 2389]
ch1 : [3192, 3193, 3196, 3195, 3191, 3193, 3200, 3197, 3193, 3191]
ch2 : [1446, 1425, 1438, 1457, 1465, 1429, 1443, 1443, 1443, 1435]
ch3 : [2707, 2704, 2707, 2710, 2707, 2713, 2709, 2712, 2716, 2710]
ch0 : [2281, 2226, 2301, 2296, 2320, 2300, 2294, 2421, 2326, 2073]
ch1 : [3194, 3205, 3193, 3195, 3196, 3197, 3196, 3193, 3194, 3199]
ch2 : [1431, 1445, 1451, 1445, 1443, 1434, 1441, 1437, 1427, 1433]
ch3 : [2714, 2714, 2715, 2717, 2716, 2715, 2716, 2715, 2716, 2718]
ch0 : [2290, 2256, 2291, 2299, 2305, 2301, 2393, 2343, 2199, 2249]
ch1 : [3193, 3189, 3192, 3198, 3191, 3195, 3191, 3195, 3196, 3197]
ch2 : [1441, 1444, 1434, 1441, 1434, 1438, 1422, 1422, 1422, 1438]
ch3 : [2718, 2725, 2722, 2720, 2722, 2719, 2715, 2724, 2726, 2728]
ch0 : [2314, 2315, 2316, 2299, 2418, 2315, 2044, 2252, 2315, 2301]
ch1 : [3195, 3194, 3210, 3187, 3193, 3194, 3197, 3196, 3189, 3194]
ch2 : [1437, 1433, 1433, 1426, 1430, 1418, 1426, 1435, 1434, 1426]
ch3 : [2727, 2729, 2729, 2733, 2728, 2732, 2738, 2735, 2736, 2742]
ch0 : [2328, 2290, 2281, 2417, 2352, 2235, 2304, 2308, 2327, 2313]
ch1 : [3197, 3193, 3194, 3195, 3197, 3190, 3200, 3197, 3191, 3197]
ch2 : [1427, 1426, 1421, 1414, 1411, 1427, 1430, 1428, 1424, 1422]
ch3 : [2736, 2738, 2738, 2739, 2735, 2742, 2747, 2742, 2745, 2745]
ch0 : [2421, 2303, 2220, 2301, 2321, 2339, 2312, 2278, 2417, 2294]
ch1 : [3194, 3194, 3201, 3197, 3194, 3194, 3200, 3196, 3196, 3196]
ch2 : [1408, 1403, 1419, 1426, 1423, 1416, 1418, 1420, 1416, 1401]
ch3 : [2759, 2758, 2763, 2765, 2766, 2760, 2764, 2753, 2772, 2764]
ch0 : [2038, 2257, 2304, 2327, 2336, 2299, 2281, 2444, 2336, 2212]
ch1 : [3195, 3190, 3204, 3195, 3189, 3193, 3195, 3194, 3196, 3196]
ch2 : [1407, 1416, 1422, 1416, 1403, 1417, 1411, 1402, 1401, 1412]
ch3 : [2766, 2773, 2773, 2776, 2772, 2773, 2775, 2773, 2786, 2778]
ch0 : [2304, 2313, 2339, 2333, 2285, 2423, 2322, 2023, 2246, 2307]
ch1 : [3194, 3195, 3197, 3192, 3193, 3191, 3192, 3196, 3197, 3190]
ch2 : [1418, 1416, 1409, 1410, 1415, 1413, 1392, 1409, 1415, 1418]
ch3 : [2779, 2780, 2784, 2780, 2785, 2779, 2774, 2782, 2784, 2777]
ch0 : [2317, 2354, 2304, 2295, 2424, 2358, 2201, 2304, 2311, 2338]
ch1 : [3196, 3200, 3192, 3191, 3194, 3195, 3196, 3196, 3194, 3197]
ch2 : [1411, 1415, 1424, 1411, 1397, 1398, 1417, 1418, 1418, 1415]
ch3 : [2786, 2787, 2786, 2786, 2788, 2783, 2773, 2792, 2791, 2783]
ch0 : [2329, 2280, 2389, 2434, 2009, 2244, 2310, 2320, 2354, 2307]
ch1 : [3179, 3192, 3191, 3194, 3194, 3191, 3194, 3197, 3209, 3194]
ch2 : [1406, 1413, 1414, 1396, 1403, 1419, 1414, 1417, 1411, 1426]
ch3 : [2783, 2788, 2786, 2781, 2786, 2793, 2794, 2798, 2792, 2790]
ch0 : [2293, 2426, 2347, 2196, 2301, 2319, 2345, 2319, 2268, 2283]
ch1 : [3195, 3193, 3193, 3195, 3191, 3195, 3207, 3194, 3196, 3197]
ch2 : [1415, 1407, 1399, 1414, 1418, 1418, 1416, 1414, 1415, 1417]
ch3 : [2797, 2792, 2789, 2797, 2798, 2790, 2800, 2805, 2786, 2797]
ch0 : [2339, 2014, 2235, 2317, 2332, 2359, 2295, 2300, 2422, 2375]
ch1 : [3191, 3196, 3194, 3194, 3196, 3193, 3197, 3193, 3192, 3201]
ch2 : [1397, 1400, 1430, 1424, 1417, 1416, 1420, 1416, 1402, 1403]
ch3 : [2794, 2794, 2812, 2811, 2799, 2802, 2796, 2797, 2796, 2799]
ch0 : [2191, 2299, 2314, 2362, 2341, 2267, 2246, 2402, 2017, 2217]
ch1 : [3198, 3192, 3195, 3200, 3194, 3195, 3192, 3190, 3198, 3194]
ch2 : [1417, 1404, 1419, 1426, 1418, 1418, 1422, 1400, 1404, 1420]
ch3 : [2805, 2794, 2804, 2808, 2801, 2799, 2810, 2800, 2800, 2808]
ch0 : [2297, 2327, 2356, 2301, 2292, 2421, 2335, 2173, 2292, 2315]
ch1 : [3192, 3191, 3193, 3181, 3200, 3191, 3193, 3197, 3197, 3194]
ch2 : [1425, 1415, 1417, 1420, 1415, 1412, 1397, 1414, 1419, 1435]
ch3 : [2806, 2807, 2804, 2803, 2803, 2803, 2802, 2809, 2809, 2806]
ch0 : [2333, 2342, 2259, 2252, 2384, 2071, 2218, 2310, 2329, 2356]
ch1 : [3192, 3192, 3189, 3199, 3189, 3191, 3195, 3197, 3195, 3194]
ch2 : [1417, 1413, 1415, 1416, 1399, 1400, 1419, 1420, 1414, 1411]
ch3 : [2808, 2799, 2806, 2807, 2803, 2804, 2811, 2812, 2810, 2810]
ch0 : [2290, 2295, 2426, 2343, 2168, 2295, 2312, 2336, 2316, 2279]
ch1 : [3191, 3195, 3187, 3194, 3193, 3203, 3192, 3194, 3196, 3197]
ch2 : [1413, 1415, 1406, 1402, 1420, 1413, 1421, 1416, 1414, 1413]
ch3 : [2809, 2811, 2805, 2808, 2811, 2812, 2810, 2813, 2814, 2811]
ch0 : [2270, 2411, 2142, 2224, 2310, 2320, 2385, 2291, 2311, 2424]
ch1 : [3194, 3193, 3196, 3192, 3196, 3197, 3192, 3192, 3190, 3195]
ch2 : [1417, 1400, 1401, 1419, 1418, 1415, 1413, 1406, 1409, 1410]
ch3 : [2814, 2812, 2810, 2816, 2817, 2815, 2812, 2810, 2813, 2815]
ch0 : [2344, 2166, 2291, 2312, 2334, 2334, 2281, 2242, 2403, 2188]
ch1 : [3195, 3195, 3194, 3189, 3194, 3195, 3193, 3194, 3195, 3192]
ch2 : [1395, 1405, 1429, 1416, 1412, 1414, 1413, 1393, 1398, 1398]
ch3 : [2815, 2811, 2817, 2813, 2816, 2818, 2815, 2814, 2814, 2814]
ch0 : [2208, 2300, 2321, 2389, 2315, 2312, 2417, 2407, 2154, 2281]
ch1 : [3200, 3192, 3195, 3192, 3196, 3195, 3195, 3193, 3195, 3196]
ch2 : [1415, 1417, 1412, 1414, 1407, 1409, 1405, 1395, 1406, 1414]
ch3 : [2818, 2823, 2811, 2815, 2812, 2815, 2813, 2818, 2820, 2826]
ch0 : [2316, 2339, 2318, 2289, 2264, 2413, 2262, 2195, 2307, 2327]
ch1 : [3193, 3177, 3195, 3194, 3196, 3192, 3191, 3190, 3193, 3199]
ch2 : [1414, 1416, 1412, 1410, 1412, 1400, 1392, 1412, 1415, 1409]
ch3 : [2822, 2821, 2821, 2819, 2818, 2819, 2819, 2818, 2824, 2824]
ch0 : [2379, 2295, 2317, 2428, 2348, 2145, 2277, 2328, 2333, 2335]
ch1 : [3191, 3200, 3193, 3196, 3196, 3194, 3193, 3188, 3200, 3198]
ch2 : [1410, 1406, 1407, 1421, 1384, 1402, 1416, 1416, 1415, 1409]
ch3 : [2822, 2813, 2820, 2821, 2819, 2824, 2826, 2820, 2826, 2813]
ch0 : [2298, 2256, 2393, 2281, 2176, 2314, 2329, 2386, 2316, 2317]
ch1 : [3193, 3191, 3193, 3197, 3196, 3191, 3210, 3192, 3198, 3195]
ch2 : [1410, 1404, 1396, 1391, 1412, 1399, 1415, 1410, 1406, 1408]
ch3 : [2822, 2821, 2820, 2824, 2822, 2832, 2827, 2824, 2822, 2825]
ch0 : [2428, 2411, 2121, 2268, 2311, 2317, 2321, 2305, 2252, 2420]
ch1 : [3192, 3194, 3192, 3193, 3194, 3191, 3195, 3191, 3200, 3192]
ch2 : [1404, 1387, 1400, 1414, 1416, 1407, 1410, 1412, 1418, 1397]
ch3 : [2825, 2820, 2824, 2832, 2828, 2829, 2824, 2824, 2829, 2823]
ch0 : [2401, 2186, 2283, 2317, 2396, 2329, 2306, 2421, 2336, 2125]
ch1 : [3194, 3197, 3196, 3190, 3195, 3193, 3197, 3190, 3197, 3195]
ch2 : [1393, 1410, 1423, 1410, 1418, 1407, 1410, 1406, 1397, 1402]
ch3 : [2824, 2836, 2828, 2817, 2825, 2820, 2828, 2826, 2824, 2826]
ch0 : [2271, 2309, 2303, 2329, 2290, 2265, 2388, 2299, 2167, 2300]
ch1 : [3193, 3194, 3195, 3195, 3194, 3193, 3196, 3193, 3194, 3193]
ch2 : [1417, 1412, 1411, 1407, 1417, 1411, 1397, 1390, 1413, 1427]
ch3 : [2831, 2828, 2828, 2828, 2827, 2828, 2824, 2824, 2826, 2830]
ch0 : [2337, 2300, 2263, 2421, 2352, 2144, 2280, 2312, 2407, 2301]
ch1 : [3193, 3196, 3191, 3195, 3197, 3196, 3198, 3196, 3203, 3196]
ch2 : [1414, 1410, 1413, 1401, 1393, 1416, 1416, 1411, 1415, 1410]
ch3 : [2832, 2828, 2831, 2824, 2828, 2831, 2833, 2833, 2831, 2838]
ch0 : [2279, 2415, 2386, 2089, 2266, 2314, 2288, 2335, 2284, 2271]
ch1 : [3192, 3193, 3183, 3199, 3194, 3197, 3192, 3192, 3192, 3197]
ch2 : [1411, 1411, 1398, 1404, 1415, 1415, 1418, 1413, 1410, 1414]
ch3 : [2833, 2825, 2832, 2830, 2830, 2830, 2836, 2830, 2830, 2834]
ch0 : [2417, 2301, 2128, 2283, 2316, 2409, 2317, 2269, 2384, 2376]
ch1 : [3185, 3192, 3194, 3196, 3200, 3192, 3196, 3195, 3194, 3191]
ch2 : [1402, 1391, 1411, 1421, 1416, 1411, 1411, 1408, 1413, 1401]
ch3 : [2827, 2830, 2832, 2834, 2832, 2831, 2829, 2832, 2830, 2834]
ch0 : [2115, 2252, 2317, 2291, 2313, 2282, 2284, 2419, 2380, 2128]
ch1 : [3186, 3196, 3191, 3192, 3195, 3187, 3195, 3192, 3195, 3197]
ch2 : [1406, 1413, 1416, 1413, 1413, 1414, 1413, 1407, 1396, 1411]
ch3 : [2831, 2833, 2830, 2833, 2833, 2835, 2827, 2832, 2828, 2833]
ch0 : [2283, 2300, 2380, 2309, 2285, 2321, 2414, 2178, 2262, 2300]
ch1 : [3195, 3196, 3190, 3208, 3192, 3193, 3196, 3195, 3195, 3197]
ch2 : [1415, 1417, 1415, 1415, 1411, 1411, 1399, 1401, 1415, 1415]
ch3 : [2833, 2836, 2837, 2831, 2830, 2827, 2830, 2837, 2834, 2835]
ch0 : [2306, 2327, 2286, 2266, 2421, 2416, 2112, 2290, 2311, 2383]
ch1 : [3206, 3194, 3194, 3194, 3194, 3191, 3191, 3196, 3190, 3196]
ch2 : [1415, 1414, 1406, 1410, 1403, 1394, 1408, 1421, 1405, 1411]
ch3 : [2833, 2834, 2834, 2836, 2830, 2831, 2846, 2836, 2838, 2848]
ch0 : [2334, 2276, 2301, 2417, 2216, 2242, 2315, 2298, 2322, 2289]
ch1 : [3191, 3195, 3194, 3188, 3196, 3195, 3198, 3197, 3200, 3194]
ch2 : [1412, 1407, 1407, 1397, 1400, 1425, 1415, 1411, 1413, 1414]
ch3 : [2832, 2833, 2834, 2831, 2833, 2841, 2839, 2837, 2836, 2834]
ch0 : [2290, 2418, 2373, 2096, 2252, 2321, 2396, 2339, 2287, 2275]
ch1 : [3194, 3187, 3185, 3185, 3201, 3198, 3201, 3196, 3192, 3197]
ch2 : [1410, 1403, 1391, 1407, 1417, 1414, 1411, 1399, 1416, 1410]
ch3 : [2844, 2839, 2830, 2836, 2837, 2841, 2838, 2845, 2837, 2838]
ch0 : [2431, 2260, 2236, 2328, 2305, 2324, 2308, 2299, 2426, 2341]
ch1 : [3204, 3194, 3196, 3200, 3197, 3190, 3197, 3192, 3195, 3201]
ch2 : [1396, 1397, 1416, 1416, 1413, 1408, 1410, 1414, 1406, 1395]
ch3 : [2834, 2836, 2848, 2839, 2840, 2841, 2836, 2839, 2831, 2836]
ch0 : [2087, 2268, 2323, 2392, 2328, 2288, 2278, 2418, 2295, 2236]
ch1 : [3193, 3193, 3198, 3192, 3193, 3195, 3190, 3188, 3196, 3191]
ch2 : [1407, 1415, 1415, 1428, 1406, 1410, 1414, 1398, 1400, 1406]
ch3 : [2838, 2845, 2840, 2838, 2839, 2834, 2829, 2830, 2834, 2842]
ch0 : [2338, 2343, 2298, 2285, 2413, 2306, 2224, 2319, 2308, 2325]
ch1 : [3195, 3196, 3194, 3193, 3191, 3197, 3198, 3195, 3194, 3191]
ch2 : [1411, 1409, 1408, 1409, 1398, 1394, 1410, 1413, 1407, 1421]
ch3 : [2843, 2837, 2839, 2841, 2838, 2830, 2840, 2842, 2844, 2842]
ch0 : [2298, 2298, 2422, 2375, 2052, 2266, 2314, 2324, 2341, 2293]
ch1 : [3193, 3196, 3192, 3195, 3196, 3196, 3191, 3192, 3194, 3192]
ch2 : [1408, 1409, 1404, 1394, 1402, 1416, 1416, 1409, 1410, 1404]
ch3 : [2841, 2843, 2840, 2838, 2840, 2844, 2844, 2842, 2839, 2838]
ch0 : [2273, 2419, 2342, 2209, 2308, 2310, 2324, 2312, 2296, 2414]
ch1 : [3192, 3191, 3200, 3193, 3193, 3195, 3189, 3192, 3192, 3192]
ch2 : [1406, 1401, 1397, 1413, 1417, 1407, 1407, 1411, 1409, 1401]
ch3 : [2842, 2836, 2839, 2843, 2844, 2844, 2842, 2840, 2839, 2839]
ch0 : [2390, 2040, 2254, 2315, 2311, 2363, 2292, 2284, 2421, 2320]
ch1 : [3193, 3200, 3194, 3192, 3191, 3200, 3197, 3198, 3193, 3196]
ch2 : [1385, 1405, 1417, 1412, 1411, 1406, 1407, 1410, 1397, 1391]
ch3 : [2844, 2839, 2846, 2845, 2836, 2843, 2841, 2844, 2841, 2842]
ch0 : [2223, 2303, 2314, 2344, 2329, 2290, 2418, 2394, 2029, 2247]
ch1 : [3198, 3201, 3209, 3200, 3203, 3195, 3190, 3200, 3198, 3196]
ch2 : [1408, 1411, 1409, 1413, 1409, 1410, 1408, 1393, 1402, 1417]
ch3 : [2846, 2835, 2846, 2836, 2845, 2843, 2847, 2838, 2844, 2847]
ch0 : [2313, 2321, 2349, 2300, 2283, 2422, 2380, 2210, 2320, 2316]
ch1 : [3194, 3194, 3193, 3191, 3191, 3188, 3193, 3198, 3197, 3197]
ch2 : [1415, 1411, 1406, 1410, 1406, 1402, 1398, 1410, 1413, 1412]
ch3 : [2850, 2847, 2843, 2843, 2844, 2842, 2845, 2846, 2857, 2846]
ch0 : [2342, 2307, 2285, 2425, 2402, 2018, 2247, 2307, 2322, 2350]
ch1 : [3195, 3195, 3191, 3194, 3191, 3191, 3195, 3197, 3192, 3196]
ch2 : [1410, 1410, 1408, 1412, 1392, 1402, 1412, 1413, 1416, 1408]
ch3 : [2845, 2844, 2848, 2846, 2840, 2844, 2836, 2849, 2852, 2852]
ch0 : [2296, 2297, 2421, 2324, 2197, 2298, 2314, 2336, 2343, 2278]
ch1 : [3195, 3195, 3191, 3193, 3197, 3191, 3194, 3196, 3197, 3197]
ch2 : [1407, 1409, 1403, 1393, 1403, 1417, 1413, 1411, 1407, 1410]
ch3 : [2839, 2844, 2844, 2846, 2846, 2849, 2849, 2849, 2845, 2852]
ch0 : [2285, 2373, 2009, 2249, 2321, 2322, 2363, 2299, 2302, 2424]
ch1 : [3192, 3193, 3209, 3196, 3190, 3197, 3192, 3187, 3191, 3187]
ch2 : [1405, 1393, 1400, 1415, 1416, 1410, 1411, 1406, 1411, 1399]
ch3 : [2841, 2846, 2845, 2833, 2839, 2847, 2848, 2832, 2849, 2843]
ch0 : [2353, 2214, 2310, 2318, 2349, 2331, 2285, 2265, 2330, 2044]
ch1 : [3191, 3203, 3190, 3190, 3190, 3196, 3190, 3197, 3192, 3208]
ch2 : [1394, 1410, 1415, 1415, 1410, 1412, 1410, 1412, 1398, 1402]
ch3 : [2847, 2849, 2849, 2849, 2847, 2848, 2847, 2846, 2846, 2842]
ch0 : [2318, 2346, 2317, 2280, 2251, 2378, 2041, 2225, 2309, 2332]
ch1 : [3194, 3190, 3193, 3191, 3205, 3197, 3196, 3194, 3200, 3197]
ch2 : [1411, 1413, 1410, 1419, 1410, 1395, 1396, 1410, 1413, 1413]
ch3 : [2849, 2848, 2845, 2843, 2843, 2846, 2844, 2850, 2852, 2849]
ch0 : [2356, 2301, 2312, 2429, 2356, 2177, 2296, 2328, 2335, 2320]
ch1 : [3194, 3193, 3191, 3195, 3189, 3196, 3206, 3194, 3192, 3194]
ch2 : [1410, 1407, 1414, 1405, 1396, 1407, 1430, 1417, 1413, 1415]
ch3 : [2848, 2845, 2849, 2849, 2849, 2848, 2847, 2839, 2847, 2850]
ch0 : [2290, 2251, 2354, 2126, 2207, 2306, 2331, 2346, 2286, 2295]
ch1 : [3198, 3194, 3183, 3195, 3203, 3192, 3194, 3191, 3195, 3197]
ch2 : [1414, 1411, 1402, 1399, 1415, 1421, 1412, 1408, 1402, 1408]
ch3 : [2852, 2851, 2851, 2848, 2853, 2849, 2851, 2848, 2848, 2849]
ch0 : [2422, 2353, 2168, 2296, 2314, 2336, 2328, 2272, 2268, 2366]
ch1 : [3194, 3195, 3195, 3199, 3196, 3200, 3197, 3197, 3194, 3196]
ch2 : [1402, 1395, 1394, 1411, 1413, 1414, 1411, 1410, 1410, 1392]
ch3 : [2848, 2847, 2852, 2850, 2849, 2852, 2850, 2852, 2850, 2845]
ch0 : [2195, 2222, 2315, 2317, 2370, 2298, 2310, 2405, 2355, 2156]
ch1 : [3196, 3195, 3193, 3197, 3189, 3180, 3196, 3193, 3192, 3194]
ch2 : [1405, 1419, 1415, 1410, 1413, 1403, 1410, 1404, 1397, 1406]
ch3 : [2850, 2856, 2854, 2851, 2850, 2848, 2852, 2840, 2846, 2853]
ch0 : [2292, 2320, 2335, 2340, 2304, 2245, 2375, 2226, 2211, 2303]
ch1 : [3198, 3207, 3190, 3193, 3196, 3200, 3196, 3197, 3190, 3191]
ch2 : [1416, 1415, 1413, 1410, 1413, 1410, 1395, 1391, 1416, 1410]
ch3 : [2854, 2855, 2839, 2848, 2850, 2851, 2847, 2847, 2852, 2852]
ch0 : [2330, 2361, 2311, 2301, 2424, 2359, 2157, 2306, 2318, 2327]
ch1 : [3195, 3192, 3197, 3191, 3189, 3196, 3195, 3195, 3195, 3195]
ch2 : [1411, 1410, 1403, 1411, 1404, 1394, 1404, 1417, 1411, 1411]
ch3 : [2859, 2846, 2848, 2850, 2848, 2850, 2850, 2854, 2857, 2853]
ch0 : [2335, 2304, 2249, 2380, 2321, 2187, 2294, 2337, 2391, 2317]
ch1 : [3201, 3199, 3190, 3193, 3194, 3194, 3197, 3183, 3196, 3194]
ch2 : [1412, 1406, 1409, 1393, 1391, 1416, 1414, 1411, 1409, 1408]
ch3 : [2856, 2861, 2852, 2849, 2848, 2852, 2854, 2850, 2852, 2846]
ch0 : [2313, 2424, 2396, 2126, 2282, 2309, 2319, 2345, 2281, 2258]
ch1 : [3198, 3194, 3197, 3196, 3205, 3198, 3197, 3194, 3192, 3182]
ch2 : [1407, 1405, 1395, 1407, 1407, 1411, 1410, 1411, 1402, 1413]
ch3 : [2853, 2850, 2847, 2853, 2852, 2865, 2852, 2838, 2847, 2851]
ch0 : [2400, 2345, 2187, 2295, 2323, 2397, 2302, 2309, 2420, 2385]
ch1 : [3191, 3197, 3195, 3191, 3187, 3193, 3195, 3196, 3195, 3196]
ch2 : [1398, 1387, 1411, 1417, 1412, 1410, 1407, 1409, 1403, 1397]
ch3 : [2847, 2852, 2855, 2848, 2853, 2852, 2848, 2851, 2851, 2851]
ch0 : [2140, 2282, 2317, 2313, 2336, 2289, 2258, 2422, 2359, 2174]
ch1 : [3195, 3193, 3192, 3208, 3192, 3195, 3190, 3193, 3194, 3192]
ch2 : [1405, 1406, 1416, 1413, 1410, 1425, 1415, 1398, 1394, 1410]
ch3 : [2837, 2853, 2856, 2853, 2844, 2856, 2856, 2851, 2848, 2853]
ch0 : [2308, 2333, 2389, 2316, 2310, 2425, 2422, 2108, 2289, 2322]
ch1 : [3190, 3183, 3192, 3194, 3196, 3187, 3194, 3197, 3192, 3192]
ch2 : [1410, 1415, 1412, 1409, 1409, 1407, 1398, 1399, 1416, 1410]
ch3 : [2856, 2855, 2853, 2853, 2853, 2854, 2851, 2853, 2854, 2852]
ch0 : [2304, 2346, 2298, 2270, 2416, 2316, 2163, 2290, 2342, 2419]
ch1 : [3191, 3196, 3193, 3197, 3192, 3195, 3197, 3190, 3194, 3193]
ch2 : [1412, 1413, 1407, 1412, 1400, 1394, 1412, 1417, 1414, 1409]
ch3 : [2853, 2855, 2850, 2855, 2849, 2852, 2851, 2841, 2843, 2852]
ch0 : [2314, 2300, 2429, 2385, 2089, 2284, 2295, 2305, 2343, 2291]
ch1 : [3192, 3191, 3192, 3178, 3194, 3200, 3189, 3193, 3202, 3194]
ch2 : [1404, 1414, 1405, 1391, 1400, 1417, 1415, 1411, 1413, 1404]
ch3 : [2849, 2853, 2841, 2845, 2851, 2852, 2857, 2860, 2849, 2851]
ch0 : [2267, 2424, 2334, 2157, 2297, 2343, 2420, 2348, 2292, 2425]
ch1 : [3192, 3192, 3195, 3198, 3193, 3193, 3188, 3193, 3193, 3193]
ch2 : [1409, 1404, 1396, 1410, 1419, 1417, 1411, 1401, 1407, 1409]
ch3 : [2855, 2846, 2851, 2856, 2858, 2859, 2854, 2851, 2851, 2854]
ch0 : [2433, 2221, 2300, 2430, 2435, 2415, 2245, 2114, 2452, 2432]
ch1 : [3189, 3189, 3193, 3194, 3189, 3191, 3195, 3197, 3193, 3206]
ch2 : [1396, 1404, 1413, 1416, 1407, 1410, 1408, 1411, 1410, 1396]
ch3 : [2853, 2853, 2855, 2856, 2855, 2854, 2853, 2854, 2851, 2853]
ch0 : [2295, 2451, 2431, 2395, 2245, 2191, 2382, 2444, 2182, 2218]
ch1 : [3191, 3203, 3189, 3195, 3195, 3196, 3193, 3195, 3194, 3197]
ch2 : [1410, 1418, 1417, 1408, 1409, 1405, 1410, 1394, 1401, 1413]
ch3 : [2855, 2856, 2853, 2857, 2851, 2851, 2853, 2845, 2853, 2852]
ch0 : [2260, 2427, 2413, 2321, 2283, 2340, 2257, 2088, 2350, 2369]
ch1 : [3189, 3193, 3191, 3192, 3193, 3196, 3193, 3192, 3195, 3201]
ch2 : [1413, 1411, 1396, 1403, 1409, 1399, 1397, 1409, 1410, 1411]
ch3 : [2856, 2856, 2853, 2852, 2852, 2845, 2851, 2854, 2854, 2857]
ch0 : [2442, 2360, 2253, 2328, 2423, 2237, 2322, 2361, 2218, 2223]
ch1 : [3193, 3195, 3193, 3190, 3194, 3205, 3208, 3187, 3191, 3196]
ch2 : [1408, 1405, 1409, 1407, 1394, 1395, 1412, 1417, 1409, 1407]
ch3 : [2852, 2850, 2851, 2853, 2852, 2851, 2852, 2857, 2855, 2852]
ch0 : [2272, 2435, 2454, 2279, 1938, 2182, 2298, 2358, 2289, 2267]
ch1 : [3198, 3192, 3187, 3195, 3194, 3205, 3192, 3192, 3192, 3194]
ch2 : [1406, 1407, 1398, 1388, 1407, 1414, 1416, 1424, 1416, 1407]
ch3 : [2851, 2844, 2857, 2847, 2849, 2852, 2855, 2852, 2856, 2848]
ch0 : [2308, 2015, 2282, 2224, 2312, 2108, 2131, 2136, 2344, 2323]
ch1 : [3195, 3191, 3195, 3190, 3193, 3195, 3192, 3197, 3195, 3183]
ch2 : [1386, 1403, 1411, 1411, 1405, 1403, 1420, 1391, 1396, 1387]
ch3 : [2846, 2849, 2853, 2850, 2861, 2844, 2850, 2856, 2851, 2848]
ch0 : [2174, 2243, 2235, 2338, 2210, 2252, 2386, 2237, 1925, 2251]
ch1 : [3190, 3194, 3194, 3197, 3195, 3191, 3195, 3195, 3196, 3203]
ch2 : [1410, 1408, 1421, 1400, 1401, 1421, 1399, 1389, 1404, 1416]
ch3 : [2850, 2845, 2852, 2847, 2846, 2849, 2849, 2848, 2847, 2853]
ch0 : [2333, 2388, 2348, 2136, 2095, 2159, 2222, 2262, 2308, 2250]
ch1 : [3194, 3187, 3195, 3194, 3194, 3190, 3195, 3183, 3193, 3195]
ch2 : [1393, 1407, 1399, 1407, 1407, 1393, 1396, 1408, 1407, 1412]
ch3 : [2848, 2853, 2845, 2845, 2852, 2848, 2848, 2854, 2845, 2862]
ch0 : [2107, 2145, 2192, 2160, 2304, 2171, 2304, 2283, 2209, 2273]
ch1 : [3196, 3193, 3193, 3192, 3195, 3194, 3195, 3192, 3193, 3191]
ch2 : [1405, 1406, 1407, 1405, 1388, 1404, 1417, 1410, 1408, 1405]
ch3 : [2849, 2849, 2849, 2846, 2848, 2849, 2851, 2844, 2852, 2843]
ch0 : [2197, 2073, 2230, 2207, 2165, 2291, 2338, 2302, 2184, 2197]
ch1 : [3194, 3200, 3191, 3194, 3197, 3191, 3194, 3191, 3196, 3194]
ch2 : [1409, 1400, 1388, 1387, 1407, 1393, 1412, 1406, 1407, 1406]
ch3 : [2848, 2848, 2847, 2854, 2850, 2851, 2852, 2845, 2845, 2852]
ch0 : [2363, 2275, 1929, 2119, 2184, 2264, 2325, 2198, 2273, 2334]
ch1 : [3195, 3195, 3201, 3196, 3194, 3193, 3195, 3190, 3178, 3197]
ch2 : [1399, 1389, 1399, 1419, 1407, 1405, 1401, 1403, 1403, 1392]
ch3 : [2842, 2844, 2846, 2849, 2850, 2852, 2851, 2841, 2848, 2850]
ch0 : [2066, 2003, 2216, 2093, 2231, 2333, 2198, 2299, 2086, 1879]
ch1 : [3196, 3189, 3198, 3193, 3196, 3193, 3192, 3194, 3196, 3207]
ch2 : [1387, 1402, 1407, 1402, 1401, 1399, 1404, 1398, 1382, 1396]
ch3 : [2848, 2852, 2853, 2853, 2849, 2846, 2847, 2847, 2848, 2848]
ch0 : [2190, 2137, 2171, 2250, 2201, 2225, 2203, 2041, 2131, 2008]
ch1 : [3190, 3195, 3194, 3191, 3200, 3194, 3207, 3195, 3195, 3197]
ch2 : [1407, 1406, 1406, 1401, 1405, 1401, 1381, 1384, 1404, 1406]
ch3 : [2851, 2848, 2850, 2847, 2852, 2850, 2850, 2848, 2845, 2851]
ch0 : [2087, 2154, 2227, 2213, 2312, 2176, 1791, 2023, 2098, 2259]
ch1 : [3192, 3196, 3193, 3191, 3199, 3195, 3200, 3194, 3200, 3196]
ch2 : [1404, 1403, 1406, 1396, 1403, 1383, 1394, 1406, 1410, 1417]
ch3 : [2852, 2850, 2852, 2847, 2852, 2847, 2850, 2847, 2852, 2852]
ch0 : [2205, 2106, 1982, 2299, 2172, 1951, 2205, 2194, 2046, 2075]
ch1 : [3198, 3200, 3206, 3194, 3193, 3198, 3197, 3201, 3194, 3198]
ch2 : [1398, 1403, 1398, 1377, 1366, 1405, 1404, 1405, 1389, 1400]
ch3 : [2848, 2850, 2845, 2846, 2848, 2851, 2852, 2849, 2852, 2851]
ch0 : [2043, 2257, 2222, 1808, 2038, 2088, 2052, 2150, 2105, 2052]
ch1 : [3200, 3194, 3193, 3191, 3197, 3192, 3201, 3192, 3199, 3199]
ch2 : [1404, 1402, 1391, 1390, 1406, 1406, 1404, 1388, 1400, 1399]
ch3 : [2848, 2851, 2852, 2851, 2853, 2853, 2850, 2851, 2847, 2852]
ch0 : [2243, 2110, 2006, 2093, 2069, 2103, 2084, 2049, 2116, 2187]
ch1 : [3195, 3197, 3194, 3200, 3197, 3197, 3200, 3200, 3195, 3196]
ch2 : [1387, 1391, 1400, 1406, 1403, 1402, 1402, 1403, 1397, 1389]
ch3 : [2847, 2851, 2851, 2852, 2852, 2850, 2852, 2850, 2850, 2849]
ch0 : [1824, 2052, 2027, 2064, 2128, 2068, 2080, 2279, 2158, 1969]
ch1 : [3192, 3196, 3196, 3194, 3195, 3191, 3190, 3197, 3196, 3197]
ch2 : [1392, 1406, 1405, 1406, 1400, 1400, 1403, 1391, 1384, 1400]
ch3 : [2850, 2847, 2852, 2852, 2847, 2852, 2849, 2848, 2849, 2855]
ch0 : [2068, 2056, 2092, 2069, 2042, 2039, 2132, 1762, 1995, 2052]
ch1 : [3197, 3195, 3199, 3196, 3197, 3194, 3196, 3201, 3191, 3200]
ch2 : [1402, 1397, 1406, 1412, 1401, 1402, 1386, 1389, 1406, 1408]
ch3 : [2850, 2855, 2855, 2849, 2847, 2846, 2849, 2846, 2847, 2854]
ch0 : [2077, 2111, 2054, 2063, 2249, 2107, 1958, 2069, 2084, 2093]
ch1 : [3197, 3192, 3196, 3200, 3192, 3193, 3198, 3191, 3197, 3198]
ch2 : [1402, 1402, 1403, 1400, 1393, 1371, 1399, 1399, 1404, 1399]
ch3 : [2855, 2849, 2850, 2847, 2852, 2853, 2851, 2853, 2853, 2853]
ch0 : [2093, 2045, 2013, 2219, 1794, 2006, 2067, 2084, 2131, 2053]
ch1 : [3195, 3189, 3194, 3196, 3198, 3195, 3196, 3199, 3194, 3199]
ch2 : [1399, 1399, 1400, 1384, 1389, 1399, 1404, 1403, 1402, 1399]
ch3 : [2852, 2849, 2838, 2848, 2849, 2852, 2853, 2852, 2852, 2847]
ch0 : [2066, 2227, 2135, 1968, 2063, 2078, 2088, 2072, 2035, 2020]
ch1 : [3196, 3195, 3194, 3197, 3197, 3195, 3196, 3196, 3199, 3197]
ch2 : [1402, 1408, 1391, 1403, 1389, 1403, 1406, 1401, 1401, 1401]
ch3 : [2851, 2856, 2843, 2851, 2852, 2852, 2851, 2848, 2852, 2851]
ch0 : [2178, 1868, 1980, 2064, 2093, 2120, 2051, 2055, 2263, 2106]
ch1 : [3196, 3199, 3206, 3200, 3195, 3198, 3198, 3199, 3192, 3194]
ch2 : [1386, 1388, 1417, 1411, 1406, 1400, 1406, 1401, 1397, 1386]
ch3 : [2853, 2849, 2852, 2857, 2854, 2857, 2850, 2851, 2850, 2854]
ch0 : [1936, 2069, 2082, 2113, 2086, 2052, 2029, 2201, 1947, 1988]
ch1 : [3203, 3191, 3196, 3199, 3191, 3197, 3196, 3195, 3198, 3199]
ch2 : [1394, 1407, 1411, 1404, 1410, 1400, 1406, 1391, 1388, 1404]
ch3 : [2852, 2862, 2852, 2853, 2851, 2856, 2854, 2850, 2851, 2856]
ch0 : [2069, 2104, 2135, 2072, 2095, 2262, 2127, 1963, 2109, 2111]
ch1 : [3196, 3196, 3195, 3196, 3196, 3200, 3194, 3199, 3194, 3194]
ch2 : [1419, 1402, 1402, 1395, 1405, 1395, 1388, 1402, 1406, 1407]
ch3 : [2855, 2850, 2850, 2850, 2851, 2851, 2856, 2854, 2851, 2855]
ch0 : [2128, 2148, 2111, 2051, 2210, 2030, 2044, 2125, 2157, 2194]
ch1 : [3199, 3194, 3196, 3198, 3197, 3199, 3191, 3196, 3190, 3191]
ch2 : [1404, 1402, 1401, 1403, 1386, 1386, 1401, 1407, 1404, 1400]
ch3 : [2854, 2853, 2850, 2856, 2853, 2852, 2854, 2860, 2861, 2853]
ch0 : [2130, 2140, 2285, 2188, 1984, 2115, 2143, 2151, 2151, 2101]
ch1 : [3195, 3208, 3198, 3193, 3195, 3197, 3193, 3195, 3203, 3199]
ch2 : [1395, 1401, 1397, 1382, 1401, 1405, 1410, 1404, 1407, 1400]
ch3 : [2849, 2853, 2852, 2852, 2860, 2857, 2858, 2856, 2855, 2857]
ch0 : [2071, 2233, 2063, 2009, 2115, 2139, 2177, 2117, 2105, 2293]
ch1 : [3196, 3193, 3195, 3196, 3200, 3206, 3197, 3195, 3195, 3190]
ch2 : [1408, 1390, 1384, 1409, 1410, 1407, 1401, 1403, 1401, 1404]
ch3 : [2860, 2851, 2851, 2857, 2859, 2855, 2857, 2855, 2851, 2860]
ch0 : [2176, 1927, 2081, 2109, 2101, 2129, 2062, 2038, 2222, 2100]
ch1 : [3199, 3196, 3194, 3194, 3192, 3194, 3192, 3199, 3194, 3194]
ch2 : [1398, 1391, 1406, 1405, 1402, 1403, 1402, 1403, 1394, 1383]
ch3 : [2854, 2848, 2861, 2858, 2858, 2856, 2857, 2864, 2857, 2853]
ch0 : [2105, 2099, 2126, 2087, 2060, 2245, 2076, 1977, 2082, 2124]
ch1 : [3198, 3195, 3198, 3196, 3196, 3205, 3194, 3195, 3200, 3195]
ch2 : [1405, 1404, 1403, 1400, 1406, 1391, 1381, 1407, 1408, 1406]
ch3 : [2859, 2857, 2860, 2855, 2858, 2851, 2864, 2860, 2860, 2852]
ch0 : [2188, 2119, 2107, 2284, 2227, 1924, 2079, 2118, 2116, 2149]
ch1 : [3191, 3194, 3191, 3196, 3190, 3188, 3193, 3195, 3191, 3192]
ch2 : [1402, 1402, 1397, 1402, 1385, 1380, 1407, 1407, 1406, 1405]
ch3 : [2857, 2863, 2857, 2860, 2854, 2856, 2859, 2860, 2856, 2854]
ch0 : [2106, 2081, 2243, 2168, 1980, 2114, 2132, 2219, 2134, 2119]
ch1 : [3196, 3200, 3195, 3196, 3194, 3197, 3195, 3194, 3201, 3197]
ch2 : [1404, 1406, 1393, 1386, 1406, 1412, 1425, 1393, 1406, 1403]
ch3 : [2860, 2857, 2856, 2855, 2861, 2855, 2858, 2858, 2857, 2856]
ch0 : [2276, 2200, 1942, 2087, 2146, 2132, 2157, 2133, 2108, 2293]
ch1 : [3192, 3199, 3197, 3199, 3190, 3196, 3197, 3194, 3193, 3188]
ch2 : [1405, 1391, 1399, 1411, 1407, 1411, 1404, 1403, 1400, 1389]
ch3 : [2856, 2857, 2856, 2860, 2860, 2859, 2864, 2853, 2860, 2855]
ch0 : [2102, 1985, 2130, 2144, 2239, 2163, 2144, 2265, 2216, 1959]
ch1 : [3197, 3195, 3193, 3196, 3192, 3193, 3191, 3195, 3192, 3199]
ch2 : [1384, 1404, 1408, 1409, 1406, 1405, 1406, 1403, 1392, 1391]
ch3 : [2853, 2860, 2862, 2864, 2858, 2851, 2864, 2860, 2860, 2860]
ch0 : [2108, 2158, 2146, 2167, 2137, 2120, 2308, 2159, 1992, 2135]
ch1 : [3197, 3196, 3197, 3197, 3197, 3199, 3194, 3196, 3195, 3194]
ch2 : [1402, 1406, 1418, 1404, 1409, 1414, 1390, 1382, 1403, 1410]
ch3 : [2857, 2863, 2860, 2860, 2860, 2861, 2858, 2860, 2855, 2860]
ch0 : [2174, 2252, 2170, 2125, 2194, 2290, 1988, 2115, 2161, 2162]
ch1 : [3191, 3189, 3196, 3197, 3197, 3190, 3194, 3194, 3195, 3196]
ch2 : [1407, 1404, 1402, 1402, 1403, 1392, 1386, 1404, 1406, 1406]
ch3 : [2860, 2869, 2858, 2858, 2860, 2855, 2860, 2861, 2863, 2858]
ch0 : [2185, 2149, 2126, 2317, 2221, 1977, 2138, 2179, 2246, 2181]
ch1 : [3200, 3193, 3195, 3193, 3195, 3199, 3197, 3191, 3192, 3209]
ch2 : [1406, 1401, 1407, 1399, 1384, 1405, 1409, 1409, 1404, 1404]
ch3 : [2864, 2861, 2860, 2858, 2858, 2861, 2862, 2862, 2863, 2856]
ch0 : [2141, 2167, 2251, 2088, 2114, 2167, 2172, 2197, 2148, 2158]
ch1 : [3187, 3197, 3197, 3198, 3181, 3197, 3187, 3191, 3191, 3192]
ch2 : [1405, 1405, 1394, 1389, 1406, 1407, 1406, 1404, 1399, 1406]
ch3 : [2855, 2863, 2860, 2864, 2863, 2862, 2867, 2860, 2860, 2860]
ch0 : [2321, 2200, 1972, 2133, 2172, 2264, 2187, 2144, 2138, 2276]
ch1 : [3194, 3195, 3201, 3197, 3192, 3191, 3198, 3191, 3196, 3190]
ch2 : [1393, 1385, 1403, 1411, 1407, 1405, 1404, 1400, 1407, 1387]
ch3 : [2861, 2864, 2861, 2865, 2864, 2857, 2847, 2859, 2859, 2862]
ch0 : [2101, 2112, 2181, 2178, 2199, 2162, 2162, 2325, 2215, 1946]
ch1 : [3194, 3198, 3196, 3197, 3194, 3194, 3196, 3194, 3197, 3197]
ch2 : [1389, 1402, 1409, 1393, 1408, 1397, 1405, 1391, 1383, 1401]
ch3 : [2859, 2858, 2863, 2862, 2861, 2857, 2860, 2858, 2864, 2861]
ch0 : [2144, 2206, 2261, 2205, 2164, 2140, 2289, 2170, 2122, 2182]
ch1 : [3181, 3187, 3198, 3194, 3194, 3198, 3192, 3193, 3197, 3196]
ch2 : [1407, 1406, 1408, 1400, 1405, 1404, 1390, 1393, 1405, 1407]
ch3 : [2862, 2862, 2864, 2860, 2862, 2865, 2864, 2862, 2863, 2862]
ch0 : [2166, 2210, 2176, 2164, 2330, 2180, 1954, 2132, 2186, 2229]
ch1 : [3188, 3195, 3197, 3194, 3197, 3195, 3182, 3196, 3198, 3197]
ch2 : [1405, 1401, 1401, 1402, 1399, 1381, 1401, 1408, 1406, 1403]
ch3 : [2862, 2864, 2858, 2862, 2864, 2860, 2861, 2865, 2865, 2861]
ch0 : [2207, 2152, 2169, 2311, 2192, 2101, 2185, 2186, 2190, 2183]
ch1 : [3197, 3194, 3196, 3194, 3197, 3211, 3196, 3196, 3195, 3196]
ch2 : [1400, 1402, 1404, 1391, 1385, 1404, 1407, 1411, 1408, 1405]
ch3 : [2859, 2860, 2858, 2864, 2864, 2865, 2851, 2865, 2865, 2861]
ch0 : [2163, 2311, 2202, 1904, 2139, 2200, 2191, 2221, 2157, 2154]
ch1 : [3190, 3194, 3199, 3201, 3197, 3195, 3193, 3191, 3194, 3197]
ch2 : [1405, 1393, 1394, 1396, 1424, 1409, 1407, 1406, 1404, 1405]
ch3 : [2866, 2863, 2860, 2870, 2864, 2867, 2865, 2859, 2860, 2860]
ch0 : [2343, 2213, 2086, 2195, 2193, 2214, 2194, 2181, 2337, 2199]
ch1 : [3193, 3195, 3195, 3195, 3196, 3192, 3197, 3200, 3196, 3200]
ch2 : [1396, 1390, 1406, 1410, 1409, 1400, 1403, 1404, 1402, 1387]
ch3 : [2862, 2860, 2862, 2867, 2864, 2863, 2862, 2862, 2868, 2861]
ch0 : [1903, 2137, 2208, 2205, 2231, 2169, 2163, 2311, 2237, 2092]
ch1 : [3196, 3195, 3196, 3198, 3196, 3194, 3197, 3197, 3195, 3200]
ch2 : [1399, 1415, 1404, 1405, 1403, 1407, 1403, 1390, 1386, 1402]
ch3 : [2863, 2872, 2867, 2866, 2861, 2862, 2862, 2862, 2863, 2866]
ch0 : [2179, 2195, 2218, 2202, 2167, 2333, 2234, 1900, 2129, 2194]
ch1 : [3197, 3194, 3200, 3198, 3193, 3195, 3196, 3197, 3196, 3197]
ch2 : [1412, 1406, 1407, 1400, 1405, 1400, 1391, 1393, 1410, 1409]
ch3 : [2864, 2863, 2862, 2863, 2866, 2865, 2862, 2865, 2868, 2868]
ch0 : [2206, 2224, 2179, 2164, 2336, 2232, 2101, 2187, 2195, 2214]
ch1 : [3199, 3194, 3200, 3190, 3193, 3194, 3195, 3195, 3194, 3192]
ch2 : [1409, 1404, 1405, 1404, 1397, 1394, 1397, 1411, 1413, 1403]
ch3 : [2872, 2864, 2863, 2863, 2861, 2862, 2858, 2865, 2865, 2865]
ch0 : [2181, 2163, 2270, 2238, 1907, 2136, 2187, 2203, 2247, 2185]
ch1 : [3193, 3193, 3194, 3192, 3190, 3194, 3196, 3194, 3193, 3196]
ch2 : [1409, 1409, 1394, 1396, 1400, 1414, 1416, 1409, 1406, 1412]
ch3 : [2864, 2869, 2865, 2860, 2863, 2864, 2865, 2864, 2864, 2863]
ch0 : [2175, 2339, 2209, 2088, 2187, 2199, 2232, 2211, 2161, 2168]
ch1 : [3195, 3190, 3196, 3195, 3182, 3195, 3195, 3198, 3193, 3190]
ch2 : [1412, 1403, 1395, 1410, 1414, 1413, 1410, 1415, 1412, 1406]
ch3 : [2865, 2864, 2849, 2868, 2874, 2873, 2867, 2868, 2869, 2868]
ch0 : [2277, 1900, 2128, 2192, 2214, 2251, 2178, 2193, 2348, 2223]
ch1 : [3194, 3199, 3195, 3206, 3193, 3210, 3194, 3195, 3195, 3195]
ch2 : [1390, 1386, 1413, 1420, 1406, 1407, 1403, 1406, 1403, 1390]
ch3 : [2864, 2861, 2865, 2868, 2869, 2863, 2864, 2858, 2860, 2864]
ch0 : [2088, 2195, 2197, 2240, 2199, 2168, 2156, 2265, 1909, 2133]
ch1 : [3194, 3195, 3195, 3194, 3198, 3197, 3198, 3193, 3195, 3197]
ch2 : [1405, 1409, 1413, 1410, 1407, 1407, 1408, 1390, 1391, 1409]
ch3 : [2863, 2862, 2866, 2865, 2864, 2849, 2864, 2859, 2862, 2868]
ch0 : [2200, 2221, 2239, 2188, 2194, 2345, 2250, 2064, 2192, 2191]
ch1 : [3196, 3199, 3200, 3197, 3198, 3195, 3194, 3196, 3195, 3197]
ch2 : [1411, 1409, 1406, 1405, 1407, 1398, 1387, 1407, 1404, 1411]
ch3 : [2865, 2866, 2862, 2860, 2864, 2859, 2862, 2863, 2860, 2851]
ch0 : [2233, 2218, 2182, 2145, 2286, 1955, 2112, 2212, 2224, 2286]
ch1 : [3193, 3197, 3199, 3196, 3191, 3197, 3196, 3197, 3193, 3196]
ch2 : [1409, 1407, 1407, 1409, 1383, 1395, 1415, 1414, 1409, 1403]
ch3 : [2865, 2862, 2860, 2862, 2861, 2857, 2876, 2862, 2856, 2858]
ch0 : [2203, 2202, 2344, 2301, 2080, 2194, 2215, 2234, 2215, 2178]
ch1 : [3196, 3197, 3195, 3192, 3195, 3196, 3197, 3194, 3197, 3194]
ch2 : [1411, 1397, 1405, 1395, 1408, 1412, 1412, 1420, 1410, 1407]
ch3 : [2862, 2855, 2862, 2861, 2863, 2862, 2862, 2866, 2859, 2863]
ch0 : [2273, 2068, 2190, 2210, 2231, 2231, 2188, 2149, 2327, 2100]
ch1 : [3193, 3192, 3196, 3193, 3190, 3197, 3187, 3195, 3194, 3191]
ch2 : [1391, 1403, 1413, 1406, 1408, 1407, 1406, 1406, 1387, 1388]
ch3 : [2877, 2863, 2864, 2864, 2866, 2863, 2864, 2863, 2862, 2863]
ch0 : [2103, 2198, 2219, 2283, 2191, 2201, 2354, 2285, 2056, 2181]
ch1 : [3198, 3190, 3195, 3193, 3197, 3196, 3195, 3195, 3198, 3194]
ch2 : [1414, 1416, 1414, 1408, 1403, 1410, 1399, 1390, 1402, 1412]
ch3 : [2866, 2869, 2859, 2863, 2863, 2865, 2867, 2864, 2868, 2868]
ch0 : [2213, 2237, 2226, 2200, 2153, 2317, 2155, 2105, 2191, 2223]
ch1 : [3193, 3193, 3193, 3197, 3193, 3196, 3193, 3196, 3196, 3205]
ch2 : [1410, 1408, 1405, 1407, 1405, 1395, 1387, 1411, 1409, 1412]
ch3 : [2866, 2868, 2864, 2864, 2864, 2864, 2864, 2868, 2867, 2853]
ch0 : [2276, 2187, 2215, 2353, 2270, 2048, 2187, 2212, 2224, 2223]
ch1 : [3188, 3195, 3193, 3195, 3191, 3197, 3198, 3197, 3192, 3195]
ch2 : [1411, 1411, 1412, 1393, 1398, 1404, 1412, 1412, 1412, 1408]
ch3 : [2866, 2862, 2857, 2865, 2863, 2865, 2869, 2869, 2868, 2862]
ch0 : [2197, 2155, 2350, 2180, 2095, 2196, 2223, 2281, 2218, 2213]
ch1 : [3194, 3194, 3194, 3197, 3191, 3195, 3195, 3197, 3198, 3200]
ch2 : [1413, 1408, 1391, 1391, 1417, 1414, 1413, 1410, 1409, 1410]
ch3 : [2863, 2867, 2863, 2862, 2867, 2869, 2870, 2865, 2864, 2864]
ch0 : [2352, 2255, 2033, 2193, 2213, 2209, 2231, 2197, 2151, 2347]
ch1 : [3201, 3193, 3195, 3190, 3196, 3195, 3197, 3195, 3194, 3198]
ch2 : [1402, 1398, 1403, 1424, 1414, 1411, 1410, 1408, 1405, 1397]
ch3 : [2865, 2865, 2865, 2872, 2866, 2869, 2868, 2867, 2866, 2865]
ch0 : [2189, 2088, 2184, 2231, 2278, 2226, 2210, 2356, 2295, 2037]
ch1 : [3200, 3195, 3195, 3196, 3197, 3194, 3194, 3195, 3192, 3195]
ch2 : [1393, 1411, 1416, 1411, 1409, 1410, 1408, 1407, 1400, 1406]
ch3 : [2869, 2868, 2868, 2863, 2867, 2864, 2869, 2863, 2868, 2868]
ch0 : [2178, 2215, 2200, 2249, 2209, 2166, 2354, 2158, 2076, 2196]
ch1 : [3197, 3196, 3196, 3193, 3196, 3197, 3192, 3190, 3188, 3195]
ch2 : [1415, 1416, 1411, 1410, 1411, 1410, 1396, 1390, 1416, 1418]
ch3 : [2860, 2869, 2871, 2863, 2870, 2865, 2868, 2875, 2868, 2873]
ch0 : [2225, 2303, 2214, 2193, 2356, 2332, 2023, 2183, 2225, 2211]
ch1 : [3191, 3195, 3192, 3191, 3194, 3196, 3185, 3200, 3195, 3193]
ch2 : [1411, 1410, 1404, 1412, 1408, 1394, 1400, 1415, 1414, 1413]
ch3 : [2871, 2867, 2864, 2854, 2869, 2867, 2867, 2870, 2867, 2864]
ch0 : [2242, 2209, 2164, 2348, 2195, 2068, 2215, 2230, 2313, 2217]
ch1 : [3199, 3197, 3195, 3189, 3198, 3194, 3196, 3193, 3194, 3198]
ch2 : [1407, 1411, 1407, 1397, 1386, 1416, 1412, 1407, 1411, 1411]
ch3 : [2871, 2869, 2867, 2866, 2872, 2872, 2865, 2869, 2871, 2867]
ch0 : [2334, 2193, 2055, 2199, 2229, 2287, 2230, 2209, 2286, 2286]
ch1 : [3192, 3197, 3197, 3193, 3196, 3193, 3197, 3196, 3190, 3192]
ch2 : [1399, 1387, 1409, 1410, 1407, 1409, 1404, 1407, 1409, 1393]
ch3 : [2868, 2866, 2866, 2872, 2878, 2871, 2867, 2867, 2865, 2864]
ch0 : [2016, 2174, 2215, 2227, 2240, 2204, 2179, 2363, 2213, 2051]
ch1 : [3192, 3187, 3190, 3194, 3193, 3195, 3196, 3196, 3197, 3194]
ch2 : [1399, 1410, 1412, 1411, 1409, 1412, 1409, 1398, 1389, 1406]
ch3 : [2869, 2869, 2873, 2855, 2868, 2869, 2869, 2863, 2862, 2870]
ch0 : [2201, 2235, 2304, 2236, 2203, 2238, 2317, 2045, 2171, 2222]
ch1 : [3200, 3195, 3195, 3200, 3196, 3192, 3193, 3193, 3193, 3194]
ch2 : [1417, 1411, 1407, 1407, 1407, 1407, 1395, 1395, 1412, 1407]
ch3 : [2871, 2871, 2867, 2865, 2868, 2867, 2868, 2867, 2873, 2874]
ch0 : [2227, 2236, 2210, 2192, 2366, 2267, 2038, 2200, 2225, 2290]
ch1 : [3196, 3198, 3194, 3198, 3195, 3194, 3191, 3196, 3197, 3196]
ch2 : [1405, 1409, 1410, 1407, 1399, 1395, 1407, 1419, 1425, 1407]
ch3 : [2872, 2876, 2868, 2870, 2864, 2868, 2868, 2872, 2870, 2870]
ch0 : [2200, 2358, 2231, 2017, 2179, 2245, 2320, 2257, 2203, 2200]
ch1 : [3194, 3191, 3200, 3191, 3194, 3194, 3204, 3190, 3191, 3195]
ch2 : [1408, 1396, 1390, 1406, 1412, 1413, 1415, 1409, 1407, 1405]
ch3 : [2870, 2864, 2864, 2871, 2869, 2875, 2872, 2867, 2863, 2868]
ch0 : [2314, 2174, 2161, 2208, 2211, 2245, 2211, 2209, 2359, 2277]
ch1 : [3191, 3196, 3200, 3194, 3195, 3195, 3200, 3194, 3194, 3193]
ch2 : [1391, 1394, 1413, 1413, 1414, 1416, 1409, 1413, 1402, 1393]
ch3 : [2869, 2865, 2869, 2860, 2868, 2871, 2867, 2868, 2866, 2864]
ch0 : [2006, 2186, 2226, 2303, 2232, 2199, 2193, 2325, 2178, 2158]
ch1 : [3196, 3193, 3181, 3191, 3192, 3192, 3199, 3194, 3198, 3197]
ch2 : [1406, 1415, 1417, 1424, 1406, 1403, 1412, 1393, 1393, 1409]
ch3 : [2870, 2871, 2867, 2872, 2868, 2868, 2869, 2867, 2863, 2873]
ch0 : [2222, 2222, 2228, 2213, 2226, 2354, 2313, 1992, 2177, 2228]
ch1 : [3192, 3194, 3197, 3190, 3197, 3197, 3195, 3200, 3197, 3196]
ch2 : [1411, 1407, 1407, 1408, 1409, 1409, 1387, 1406, 1413, 1411]
ch3 : [2864, 2868, 2867, 2871, 2867, 2870, 2866, 2873, 2870, 2871]
ch0 : [2282, 2246, 2202, 2193, 2303, 2211, 2159, 2207, 2201, 2234]
ch1 : [3195, 3193, 3195, 3198, 3192, 3195, 3185, 3194, 3194, 3194]
ch2 : [1412, 1410, 1408, 1407, 1398, 1396, 1409, 1417, 1406, 1413]
ch3 : [2871, 2867, 2866, 2869, 2865, 2868, 2871, 2865, 2855, 2868]
ch0 : [2216, 2227, 2357, 2284, 1973, 2166, 2229, 2231, 2261, 2208]
ch1 : [3197, 3190, 3196, 3193, 3198, 3196, 3197, 3197, 3195, 3194]
ch2 : [1411, 1411, 1405, 1395, 1407, 1420, 1411, 1413, 1409, 1398]
ch3 : [2869, 2868, 2868, 2864, 2868, 2874, 2872, 2874, 2866, 2866]
ch0 : [2200, 2336, 2245, 2144, 2224, 2225, 2214, 2223, 2220, 2360]
ch1 : [3195, 3195, 3194, 3197, 3197, 3195, 3195, 3196, 3195, 3196]
ch2 : [1409, 1400, 1395, 1412, 1414, 1414, 1408, 1416, 1392, 1409]
ch3 : [2868, 2869, 2868, 2874, 2867, 2867, 2868, 2867, 2870, 2865]
ch0 : [2131, 2221, 2234, 2243, 2229, 2203, 2361, 2221, 1973, 2169]
ch1 : [3195, 3196, 3196, 3194, 3196, 3194, 3192, 3194, 3196, 3194]
ch2 : [1413, 1417, 1417, 1416, 1412, 1416, 1410, 1397, 1405, 1412]
ch3 : [2867, 2871, 2871, 2870, 2868, 2869, 2868, 2866, 2866, 2870]
ch0 : [2232, 2226, 2259, 2214, 2212, 2345, 2232, 2144, 2225, 2249]
ch1 : [3196, 3200, 3192, 3189, 3195, 3196, 3196, 3196, 3196, 3192]
ch2 : [1415, 1416, 1410, 1413, 1417, 1404, 1399, 1415, 1421, 1422]
ch3 : [2874, 2873, 2868, 2867, 2867, 2867, 2866, 2871, 2871, 2873]
ch0 : [2255, 2220, 2186, 2368, 2222, 1956, 2177, 2229, 2251, 2251]
ch1 : [3193, 3192, 3194, 3194, 3195, 3197, 3198, 3196, 3197, 3192]
ch2 : [1427, 1420, 1422, 1416, 1411, 1409, 1427, 1425, 1427, 1425]
ch3 : [2871, 2873, 2869, 2872, 2869, 2868, 2877, 2871, 2870, 2869]
ch0 : [2199, 2194, 2356, 2238, 2132, 2205, 2218, 2249, 2247, 2184]
ch1 : [3198, 3194, 3194, 3195, 3196, 3195, 3200, 3193, 3197, 3197]
ch2 : [1419, 1420, 1404, 1408, 1422, 1428, 1426, 1424, 1423, 1423]
ch3 : [2866, 2869, 2867, 2868, 2872, 2870, 2868, 2869, 2880, 2856]
ch0 : [2305, 2254, 1924, 2161, 2213, 2243, 2270, 2216, 2218, 2371]
ch1 : [3198, 3197, 3201, 3195, 3194, 3196, 3187, 3198, 3192, 3181]
ch2 : [1419, 1406, 1420, 1426, 1433, 1430, 1424, 1424, 1431, 1419]
ch3 : [2869, 2876, 2866, 2858, 2870, 2870, 2870, 2868, 2866, 2867]
ch0 : [2286, 2119, 2230, 2252, 2252, 2243, 2157, 2206, 2262, 1900]
ch1 : [3197, 3199, 3192, 3191, 3189, 3196, 3194, 3188, 3195, 3200]
ch2 : [1412, 1426, 1437, 1435, 1427, 1430, 1426, 1426, 1416, 1421]
ch3 : [2869, 2870, 2867, 2869, 2867, 2866, 2866, 2868, 2869, 2868]
ch0 : [2161, 2226, 2233, 2274, 2194, 2202, 2353, 2240, 2112, 2205]
ch1 : [3200, 3195, 3196, 3187, 3197, 3194, 3193, 3190, 3194, 3196]
ch2 : [1441, 1441, 1435, 1432, 1432, 1435, 1427, 1419, 1430, 1435]
ch3 : [2868, 2869, 2859, 2869, 2863, 2869, 2867, 2869, 2869, 2868]
ch0 : [2234, 2241, 2213, 2178, 2180, 2276, 1916, 2141, 2212, 2230]
ch1 : [3206, 3197, 3194, 3195, 3200, 3196, 3200, 3194, 3195, 3191]
ch2 : [1433, 1432, 1430, 1426, 1431, 1398, 1422, 1434, 1429, 1431]
ch3 : [2870, 2870, 2863, 2869, 2868, 2863, 2864, 2867, 2870, 2867]
ch0 : [2263, 2207, 2217, 2365, 2218, 2094, 2206, 2222, 2242, 2235]
ch1 : [3181, 3190, 3195, 3196, 3200, 3194, 3195, 3197, 3196, 3196]
ch2 : [1423, 1424, 1428, 1421, 1418, 1429, 1434, 1435, 1436, 1432]
ch3 : [2864, 2860, 2864, 2865, 2863, 2866, 2869, 2868, 2871, 2865]
ch0 : [2191, 2172, 2271, 1949, 2147, 2222, 2245, 2311, 2196, 2210]
ch1 : [3199, 3195, 3190, 3200, 3198, 3185, 3193, 3195, 3196, 3196]
ch2 : [1433, 1434, 1416, 1418, 1438, 1441, 1437, 1427, 1427, 1437]
ch3 : [2868, 2869, 2865, 2863, 2868, 2872, 2868, 2864, 2864, 2865]
ch0 : [2360, 2261, 2091, 2211, 2229, 2246, 2236, 2200, 2167, 2320]
ch1 : [3197, 3196, 3195, 3201, 3195, 3194, 3196, 3195, 3198, 3197]
ch2 : [1425, 1420, 1433, 1442, 1440, 1432, 1441, 1436, 1435, 1416]
ch3 : [2880, 2869, 2868, 2868, 2866, 2866, 2865, 2863, 2863, 2863]
ch0 : [2057, 2150, 2220, 2234, 2287, 2200, 2216, 2361, 2304, 2082]
ch1 : [3196, 3198, 3193, 3193, 3192, 3191, 3193, 3193, 3195, 3200]
ch2 : [1416, 1441, 1437, 1429, 1429, 1433, 1429, 1423, 1412, 1422]
ch3 : [2865, 2870, 2868, 2869, 2868, 2859, 2864, 2868, 2865, 2867]
ch0 : [2196, 2232, 2248, 2244, 2197, 2172, 2294, 2099, 2146, 2233]
ch1 : [3191, 3200, 3191, 3194, 3194, 3195, 3187, 3200, 3197, 3196]
ch2 : [1429, 1424, 1410, 1423, 1433, 1427, 1409, 1411, 1428, 1435]
ch3 : [2872, 2868, 2867, 2863, 2868, 2870, 2863, 2864, 2867, 2869]
ch0 : [2228, 2291, 2204, 2213, 2363, 2270, 2093, 2205, 2233, 2255]
ch1 : [3191, 3190, 3194, 3187, 3192, 3194, 3196, 3194, 3195, 3200]
ch2 : [1424, 1425, 1428, 1427, 1420, 1413, 1422, 1430, 1433, 1423]
ch3 : [2868, 2866, 2865, 2865, 2865, 2863, 2864, 2866, 2868, 2868]
ch0 : [2238, 2201, 2171, 2361, 2180, 2135, 2216, 2225, 2300, 2233]
ch1 : [3195, 3191, 3196, 3195, 3196, 3197, 3189, 3194, 3192, 3197]
ch2 : [1430, 1422, 1426, 1412, 1406, 1427, 1428, 1423, 1413, 1416]
ch3 : [2867, 2868, 2864, 2868, 2862, 2856, 2869, 2863, 2867, 2865]
ch0 : [2247, 2364, 2278, 2062, 2197, 2225, 2250, 2237, 2200, 2182]
ch1 : [3198, 3193, 3190, 3197, 3195, 3195, 3196, 3197, 3195, 3187]
ch2 : [1414, 1405, 1393, 1409, 1417, 1413, 1404, 1410, 1412, 1408]
ch3 : [2866, 2861, 2863, 2866, 2868, 2868, 2865, 2868, 2884, 2867]
ch0 : [2322, 2243, 2108, 2217, 2241, 2308, 2223, 2230, 2371, 2309]
ch1 : [3194, 3195, 3196, 3195, 3196, 3191, 3192, 3191, 3193, 3189]
ch2 : [1391, 1384, 1424, 1410, 1414, 1406, 1397, 1407, 1406, 1391]
ch3 : [2864, 2862, 2867, 2871, 2869, 2868, 2865, 2865, 2864, 2866]
ch0 : [2044, 2220, 2236, 2233, 2258, 2216, 2176, 2349, 2161, 2115]
ch1 : [3193, 3197, 3192, 3193, 3196, 3193, 3200, 3191, 3194, 3198]
ch2 : [1399, 1408, 1407, 1401, 1399, 1402, 1407, 1396, 1387, 1405]
ch3 : [2878, 2870, 2868, 2865, 2869, 2866, 2865, 2865, 2855, 2869]
ch0 : [2217, 2241, 2327, 2235, 2221, 2370, 2324, 2049, 2212, 2230]
ch1 : [3193, 3183, 3189, 3201, 3197, 3189, 3196, 3197, 3197, 3193]
ch2 : [1402, 1406, 1399, 1395, 1396, 1391, 1387, 1398, 1395, 1398]
ch3 : [2869, 2872, 2863, 2865, 2865, 2865, 2864, 2866, 2868, 2863]
ch0 : [2231, 2265, 2211, 2186, 2317, 2271, 2098, 2222, 2246, 2316]
ch1 : [3194, 3194, 3194, 3200, 3189, 3191, 3193, 3197, 3197, 3197]
ch2 : [1398, 1391, 1388, 1388, 1378, 1376, 1390, 1391, 1386, 1382]
ch3 : [2870, 2866, 2866, 2867, 2869, 2863, 2868, 2876, 2867, 2866]
ch0 : [2243, 2214, 2374, 2343, 2040, 2209, 2255, 2230, 2283, 2232]
ch1 : [3196, 3196, 3192, 3195, 3196, 3197, 3195, 3197, 3194, 3199]
ch2 : [1380, 1380, 1377, 1364, 1367, 1382, 1382, 1379, 1385, 1375]
ch3 : [2867, 2867, 2867, 2864, 2866, 2872, 2867, 2869, 2861, 2861]
ch0 : [2209, 2368, 2283, 2110, 2236, 2263, 2325, 2260, 2225, 2345]
ch1 : [3196, 3198, 3193, 3195, 3194, 3193, 3194, 3195, 3194, 3196]
ch2 : [1376, 1368, 1360, 1378, 1380, 1377, 1383, 1372, 1369, 1375]
ch3 : [2876, 2867, 2865, 2866, 2872, 2869, 2869, 2867, 2867, 2870]
ch0 : [2321, 2030, 2208, 2255, 2248, 2258, 2219, 2200, 2349, 2227]
ch1 : [3195, 3196, 3198, 3195, 3192, 3190, 3196, 3197, 3193, 3194]
ch2 : [1354, 1358, 1369, 1375, 1374, 1368, 1371, 1362, 1354, 1351]
ch3 : [2872, 2870, 2869, 2867, 2871, 2856, 2867, 2868, 2878, 2868]
ch0 : [2060, 2233, 2265, 2339, 2267, 2219, 2307, 2310, 2050, 2201]
ch1 : [3194, 3192, 3193, 3190, 3182, 3192, 3195, 3192, 3200, 3199]
ch2 : [1370, 1373, 1372, 1364, 1363, 1365, 1366, 1355, 1358, 1363]
ch3 : [2872, 2871, 2870, 2863, 2865, 2870, 2865, 2868, 2868, 2872]
ch0 : [2252, 2236, 2254, 2222, 2217, 2343, 2307, 2095, 2236, 2261]
ch1 : [3193, 3195, 3195, 3200, 3195, 3190, 3198, 3190, 3194, 3199]
ch2 : [1375, 1363, 1363, 1366, 1366, 1348, 1343, 1356, 1365, 1361]
ch3 : [2870, 2868, 2867, 2867, 2870, 2865, 2865, 2870, 2869, 2870]
ch0 : [2334, 2270, 2240, 2249, 2368, 2125, 2201, 2256, 2267, 2268]
ch1 : [3190, 3193, 3195, 3202, 3196, 3195, 3194, 3193, 3195, 3195]
ch2 : [1353, 1351, 1354, 1357, 1341, 1341, 1360, 1360, 1357, 1348]
ch3 : [2870, 2864, 2864, 2856, 2868, 2867, 2870, 2873, 2870, 2877]
ch0 : [2217, 2214, 2385, 2252, 2046, 2204, 2240, 2336, 2251, 2211]
ch1 : [3191, 3198, 3192, 3191, 3195, 3209, 3197, 3193, 3196, 3196]
ch2 : [1334, 1336, 1332, 1326, 1342, 1350, 1343, 1333, 1326, 1329]
ch3 : [2876, 2878, 2863, 2866, 2873, 2866, 2872, 2869, 2865, 2867]
ch0 : [2219, 2337, 2174, 2176, 2254, 2234, 2259, 2252, 2227, 2374]
ch1 : [3196, 3190, 3196, 3191, 3197, 3190, 3190, 3196, 3190, 3192]
ch2 : [1333, 1311, 1307, 1324, 1324, 1325, 1320, 1324, 1312, 1317]
ch3 : [2871, 2868, 2863, 2873, 2868, 2863, 2868, 2867, 2871, 2870]
ch0 : [2267, 2039, 2219, 2258, 2304, 2284, 2230, 2224, 2369, 2219]
ch1 : [3191, 3192, 3195, 3195, 3194, 3194, 3190, 3196, 3190, 3195]
ch2 : [1290, 1310, 1324, 1318, 1310, 1306, 1306, 1311, 1291, 1291]
ch3 : [2866, 2867, 2871, 2870, 2868, 2868, 2866, 2868, 2870, 2869]
ch0 : [2255, 2295, 2274, 2232, 2207, 2353, 2232, 2172, 2251, 2246]
ch1 : [3191, 3194, 3197, 3197, 3195, 3195, 3197, 3192, 3196, 3193]
ch2 : [1296, 1290, 1289, 1289, 1286, 1269, 1267, 1288, 1283, 1279]
ch3 : [2874, 2872, 2867, 2861, 2871, 2862, 2866, 2874, 2873, 2867]
ch0 : [2267, 2245, 2235, 2374, 2326, 1995, 2206, 2249, 2266, 2282]
ch1 : [3202, 3190, 3197, 3192, 3195, 3196, 3191, 3196, 3190, 3204]
ch2 : [1273, 1268, 1267, 1277, 1247, 1260, 1264, 1265, 1256, 1252]
ch3 : [2868, 2872, 2869, 2871, 2866, 2871, 2876, 2874, 2874, 2867]
ch0 : [2229, 2213, 2336, 2258, 2156, 2248, 2243, 2265, 2250, 2232]
ch1 : [3195, 3193, 3194, 3196, 3195, 3194, 3181, 3193, 3192, 3196]
ch2 : [1255, 1253, 1238, 1230, 1243, 1245, 1243, 1238, 1234, 1239]
ch3 : [2871, 2871, 2870, 2881, 2885, 2875, 2873, 2867, 2870, 2867]
ch0 : [2375, 2318, 1968, 2195, 2235, 2262, 2276, 2221, 2217, 2362]
ch1 : [3191, 3196, 3197, 3195, 3191, 3193, 3185, 3195, 3194, 3191]
ch2 : [1234, 1210, 1225, 1232, 1244, 1224, 1218, 1216, 1215, 1205]
ch3 : [2875, 2878, 2871, 2874, 2875, 2874, 2873, 2871, 2871, 2871]
ch0 : [2284, 2147, 2238, 2248, 2281, 2262, 2214, 2377, 2289, 1962]
ch1 : [3189, 3195, 3194, 3198, 3197, 3195, 3196, 3193, 3194, 3189]
ch2 : [1207, 1211, 1210, 1209, 1214, 1209, 1205, 1204, 1183, 1187]
ch3 : [2873, 2875, 2874, 2884, 2876, 2873, 2861, 2875, 2870, 2870]
ch0 : [2192, 2247, 2256, 2285, 2216, 2220, 2376, 2283, 2152, 2247]
ch1 : [3193, 3195, 3194, 3187, 3192, 3198, 3193, 3192, 3194, 3193]
ch2 : [1206, 1202, 1201, 1195, 1192, 1195, 1181, 1176, 1188, 1196]
ch3 : [2875, 2869, 2874, 2874, 2863, 2884, 2872, 2872, 2877, 2873]
ch0 : [2245, 2270, 2252, 2210, 2342, 2303, 1952, 2174, 2246, 2253]
ch1 : [3196, 3192, 3197, 3196, 3194, 3191, 3200, 3191, 3200, 3196]
ch2 : [1194, 1182, 1187, 1183, 1178, 1165, 1168, 1183, 1180, 1182]
ch3 : [2876, 2873, 2873, 2875, 2870, 2871, 2871, 2875, 2877, 2877]
ch0 : [2284, 2232, 2233, 2379, 2323, 2121, 2229, 2250, 2278, 2250]
ch1 : [3192, 3198, 3196, 3192, 3194, 3194, 3195, 3190, 3201, 3192]
ch2 : [1169, 1166, 1168, 1165, 1151, 1161, 1166, 1165, 1163, 1163]
ch3 : [2877, 2874, 2875, 2873, 2873, 2876, 2880, 2880, 2872, 2877]
ch0 : [2204, 2190, 2318, 1929, 2164, 2243, 2254, 2285, 2221, 2226]
ch1 : [3181, 3190, 3192, 3198, 3194, 3196, 3194, 3184, 3195, 3195]
ch2 : [1161, 1161, 1142, 1147, 1177, 1161, 1160, 1152, 1153, 1146]
ch3 : [2873, 2880, 2872, 2872, 2880, 2866, 2877, 2874, 2872, 2872]
ch0 : [2374, 2287, 2117, 2239, 2249, 2279, 2259, 2204, 2175, 2311]
ch1 : [3192, 3194, 3194, 3191, 3194, 3193, 3194, 3194, 3208, 3202]
ch2 : [1146, 1142, 1156, 1161, 1156, 1157, 1156, 1152, 1154, 1138]
ch3 : [2880, 2877, 2877, 2882, 2877, 2876, 2874, 2877, 2874, 2863]
ch0 : [1929, 2165, 2232, 2262, 2263, 2212, 2226, 2374, 2281, 2114]
ch1 : [3200, 3196, 3193, 3191, 3186, 3195, 3196, 3193, 3196, 3195]
ch2 : [1143, 1160, 1161, 1152, 1155, 1149, 1155, 1153, 1135, 1146]
ch3 : [2873, 2874, 2878, 2886, 2874, 2877, 2875, 2877, 2876, 2877]
ch0 : [2212, 2239, 2266, 2244, 2202, 2189, 2300, 2037, 2161, 2229]
ch1 : [3193, 3195, 3196, 3193, 3194, 3195, 3197, 3195, 3194, 3196]
ch2 : [1157, 1154, 1156, 1157, 1154, 1155, 1140, 1140, 1153, 1155]
ch3 : [2876, 2876, 2879, 2873, 2876, 2879, 2877, 2870, 2874, 2880]
ch0 : [2254, 2304, 2203, 2232, 2372, 2285, 2101, 2234, 2248, 2261]
ch1 : [3200, 3194, 3196, 3197, 3194, 3193, 3196, 3196, 3195, 3193]
ch2 : [1155, 1148, 1145, 1151, 1144, 1133, 1146, 1155, 1151, 1148]
ch3 : [2878, 2874, 2873, 2873, 2876, 2873, 2877, 2877, 2875, 2875]
ch0 : [2267, 2209, 2190, 2288, 2095, 2140, 2228, 2268, 2292, 2231]
ch1 : [3194, 3191, 3199, 3204, 3198, 3197, 3197, 3190, 3191, 3192]
ch2 : [1146, 1148, 1144, 1131, 1128, 1149, 1149, 1147, 1146, 1148]
ch3 : [2875, 2869, 2874, 2874, 2876, 2875, 2876, 2879, 2867, 2871]
ch0 : [2233, 2367, 2266, 2076, 2205, 2234, 2257, 2260, 2212, 2184]
ch1 : [3188, 3193, 3197, 3202, 3195, 3196, 3196, 3194, 3200, 3197]
ch2 : [1143, 1138, 1129, 1141, 1150, 1146, 1153, 1151, 1148, 1151]
ch3 : [2869, 2876, 2873, 2876, 2874, 2885, 2875, 2877, 2884, 2875]
ch0 : [2319, 2229, 2124, 2236, 2259, 2301, 2244, 2228, 2374, 2325]
ch1 : [3193, 3196, 3193, 3194, 3194, 3195, 3197, 3195, 3196, 3195]
ch2 : [1125, 1127, 1157, 1153, 1159, 1151, 1149, 1157, 1147, 1138]
ch3 : [2873, 2872, 2873, 2880, 2877, 2872, 2872, 2875, 2874, 2871]
ch0 : [2075, 2216, 2249, 2244, 2267, 2244, 2186, 2310, 2220, 2129]
ch1 : [3195, 3200, 3193, 3197, 3194, 3197, 3205, 3191, 3197, 3203]
ch2 : [1146, 1162, 1160, 1158, 1164, 1156, 1159, 1143, 1141, 1162]
ch3 : [2871, 2875, 2880, 2876, 2874, 2877, 2874, 2873, 2873, 2881]
ch0 : [2224, 2257, 2320, 2237, 2212, 2379, 2309, 2059, 2220, 2240]
ch1 : [3192, 3191, 3192, 3195, 3199, 3193, 3193, 3196, 3199, 3195]
ch2 : [1170, 1166, 1163, 1164, 1166, 1162, 1153, 1161, 1168, 1172]
ch3 : [2877, 2864, 2872, 2872, 2877, 2875, 2874, 2878, 2881, 2879]
ch0 : [2242, 2270, 2234, 2199, 2381, 2195, 2099, 2227, 2244, 2321]
ch1 : [3197, 3193, 3198, 3199, 3194, 3195, 3194, 3191, 3195, 3194]
ch2 : [1160, 1173, 1175, 1178, 1164, 1156, 1181, 1182, 1185, 1182]
ch3 : [2876, 2878, 2878, 2874, 2871, 2871, 2877, 2878, 2877, 2876]
ch0 : [2247, 2223, 2375, 2304, 2041, 2204, 2241, 2244, 2252, 2220]
ch1 : [3194, 3184, 3192, 3197, 3182, 3197, 3195, 3195, 3197, 3200]
ch2 : [1178, 1180, 1178, 1169, 1173, 1202, 1190, 1185, 1189, 1189]
ch3 : [2876, 2876, 2878, 2873, 2872, 2880, 2878, 2878, 2878, 2879]
ch0 : [2294, 2037, 2200, 2237, 2242, 2256, 2221, 2199, 2376, 2242]
ch1 : [3191, 3196, 3197, 3193, 3191, 3198, 3196, 3194, 3195, 3197]
ch2 : [1184, 1189, 1199, 1205, 1203, 1203, 1201, 1199, 1197, 1187]
ch3 : [2874, 2876, 2884, 2880, 2880, 2876, 2875, 2876, 2875, 2870]
ch0 : [2072, 2216, 2244, 2349, 2267, 2216, 2290, 2345, 2073, 2195]
ch1 : [3197, 3197, 3196, 3193, 3194, 3198, 3192, 3200, 3197, 3196]
ch2 : [1206, 1212, 1212, 1211, 1205, 1207, 1215, 1199, 1201, 1216]
ch3 : [2876, 2880, 2879, 2878, 2871, 2889, 2880, 2877, 2877, 2879]
ch0 : [2242, 2247, 2258, 2225, 2227, 2371, 2277, 2050, 2212, 2234]
ch1 : [3194, 3194, 3194, 3191, 3188, 3178, 3196, 3196, 3193, 3197]
ch2 : [1216, 1217, 1217, 1216, 1216, 1212, 1201, 1217, 1223, 1223]
ch3 : [2882, 2874, 2882, 2871, 2880, 2876, 2863, 2871, 2878, 2889]
ch0 : [2353, 2261, 2208, 2223, 2376, 2137, 2184, 2258, 2233, 2260]
ch1 : [3196, 3195, 3195, 3196, 3194, 3197, 3195, 3197, 3195, 3194]
ch2 : [1221, 1217, 1219, 1219, 1205, 1206, 1223, 1226, 1224, 1219]
ch3 : [2875, 2871, 2876, 2874, 2876, 2871, 2880, 2876, 2874, 2876]
ch0 : [2232, 2222, 2379, 2281, 2024, 2195, 2219, 2335, 2257, 2223]
ch1 : [3194, 3195, 3192, 3196, 3197, 3194, 3191, 3191, 3190, 3196]
ch2 : [1217, 1224, 1213, 1205, 1217, 1227, 1226, 1229, 1222, 1226]
ch3 : [2876, 2880, 2876, 2877, 2874, 2879, 2878, 2878, 2878, 2876]
ch0 : [2215, 2355, 2201, 2184, 2241, 2238, 2263, 2234, 2238, 2369]
ch1 : [3196, 3196, 3197, 3207, 3192, 3190, 3197, 3198, 3192, 3208]
ch2 : [1226, 1215, 1213, 1228, 1226, 1226, 1228, 1226, 1228, 1222]
ch3 : [2877, 2879, 2880, 2871, 2878, 2877, 2875, 2876, 2879, 2875]
ch0 : [2334, 2033, 2212, 2244, 2293, 2271, 2231, 2220, 2342, 2267]
ch1 : [3200, 3192, 3197, 3181, 3191, 3190, 3196, 3190, 3197, 3189]
ch2 : [1208, 1222, 1239, 1230, 1236, 1228, 1229, 1242, 1220, 1221]
ch3 : [2876, 2880, 2880, 2878, 2878, 2882, 2877, 2879, 2875, 2878]
ch0 : [2175, 2243, 2247, 2267, 2242, 2232, 2381, 2250, 1999, 2198]
ch1 : [3195, 3193, 3193, 3195, 3195, 3193, 3195, 3194, 3198, 3196]
ch2 : [1232, 1238, 1232, 1236, 1235, 1237, 1234, 1218, 1232, 1248]
ch3 : [2881, 2879, 2882, 2879, 2876, 2879, 2875, 2872, 2878, 2877]
ch0 : [2249, 2258, 2281, 2232, 2224, 2379, 2256, 2161, 2238, 2235]
ch1 : [3195, 3195, 3194, 3200, 3195, 3195, 3191, 3197, 3194, 3187]
ch2 : [1237, 1241, 1238, 1238, 1241, 1229, 1226, 1242, 1250, 1247]
ch3 : [2876, 2878, 2877, 2872, 2877, 2874, 2880, 2877, 2879, 2885]
ch0 : [2277, 2244, 2234, 2378, 2316, 1973, 2193, 2231, 2251, 2278]
ch1 : [3187, 3200, 3197, 3195, 3192, 3196, 3197, 3197, 3195, 3193]
ch2 : [1247, 1244, 1245, 1240, 1233, 1240, 1251, 1250, 1249, 1241]
ch3 : [2884, 2875, 2878, 2881, 2874, 2876, 2880, 2888, 2880, 2876]
ch0 : [2374, 2291, 1964, 2185, 2249, 2263, 2287, 2235, 2221, 2377]
ch1 : [3198, 3194, 3197, 3195, 3195, 3196, 3193, 3193, 3193, 3190]
ch2 : [1256, 1234, 1247, 1256, 1259, 1256, 1254, 1254, 1250, 1244]
ch3 : [2879, 2876, 2879, 2883, 2867, 2883, 2875, 2876, 2876, 2877]
ch0 : [2324, 2145, 2238, 2241, 2281, 2247, 2209, 2253, 2314, 1964]
ch1 : [3191, 3195, 3200, 3192, 3193, 3192, 3194, 3192, 3194, 3196]
ch2 : [1242, 1254, 1260, 1265, 1262, 1257, 1260, 1260, 1246, 1249]
ch3 : [2878, 2882, 2884, 2878, 2878, 2877, 2878, 2877, 2875, 2876]
ch0 : [2181, 2245, 2264, 2292, 2223, 2240, 2344, 2246, 2127, 2237]
ch1 : [3193, 3195, 3193, 3192, 3187, 3194, 3195, 3194, 3196, 3190]
ch2 : [1263, 1264, 1263, 1260, 1260, 1257, 1250, 1244, 1265, 1267]
ch3 : [2879, 2881, 2883, 2875, 2876, 2878, 2878, 2879, 2879, 2883]
ch0 : [2251, 2284, 2261, 2218, 2201, 2336, 1932, 2173, 2238, 2264]
ch1 : [3196, 3194, 3192, 3190, 3198, 3197, 3201, 3194, 3194, 3196]
ch2 : [1264, 1266, 1263, 1263, 1267, 1246, 1250, 1269, 1266, 1272]
ch3 : [2882, 2888, 2878, 2879, 2878, 2876, 2886, 2881, 2880, 2879]
ch0 : [2305, 2227, 2242, 2384, 2284, 2120, 2236, 2243, 2276, 2247]
ch1 : [3196, 3194, 3196, 3187, 3187, 3191, 3196, 3191, 3196, 3187]
ch2 : [1267, 1267, 1264, 1258, 1252, 1262, 1275, 1278, 1270, 1269]
ch3 : [2877, 2876, 2882, 2877, 2888, 2875, 2879, 2882, 2881, 2881]
ch0 : [2198, 2185, 2320, 2014, 2148, 2237, 2254, 2290, 2231, 2226]
ch1 : [3194, 3196, 3196, 3186, 3197, 3195, 3197, 3197, 3194, 3200]
ch2 : [1268, 1267, 1252, 1255, 1273, 1273, 1272, 1268, 1269, 1266]
ch3 : [2874, 2874, 2876, 2875, 2881, 2882, 2881, 2877, 2876, 2878]
ch0 : [2372, 2248, 2095, 2235, 2246, 2272, 2251, 2214, 2197, 2362]
ch1 : [3197, 3195, 3191, 3198, 3195, 3193, 3195, 3197, 3195, 3194]
ch2 : [1263, 1258, 1270, 1274, 1273, 1273, 1270, 1270, 1270, 1258]
ch3 : [2878, 2883, 2871, 2882, 2879, 2878, 2874, 2880, 2879, 2878]
ch0 : [2079, 2152, 2233, 2256, 2294, 2231, 2232, 2372, 2306, 2114]
ch1 : [3191, 3195, 3193, 3187, 3193, 3193, 3196, 3190, 3197, 3197]
ch2 : [1256, 1278, 1280, 1278, 1274, 1267, 1277, 1266, 1259, 1270]
ch3 : [2873, 2885, 2883, 2886, 2881, 2876, 2875, 2874, 2880, 2881]
ch0 : [2220, 2261, 2261, 2260, 2229, 2184, 2343, 2137, 2128, 2235]
ch1 : [3199, 3195, 3194, 3197, 3190, 3200, 3193, 3195, 3191, 3199]
ch2 : [1278, 1278, 1275, 1278, 1276, 1278, 1262, 1262, 1278, 1282]
ch3 : [2881, 2880, 2881, 2880, 2880, 2879, 2877, 2875, 2879, 2881]
ch0 : [2265, 2305, 2255, 2258, 2378, 2309, 2074, 2220, 2260, 2263]
ch1 : [3204, 3205, 3200, 3195, 3192, 3195, 3196, 3197, 3179, 3200]
ch2 : [1280, 1277, 1273, 1283, 1274, 1263, 1269, 1282, 1282, 1282]
ch3 : [2876, 2880, 2880, 2880, 2880, 2875, 2879, 2880, 2875, 2878]
ch0 : [2240, 2375, 2307, 2063, 2231, 2253, 2235, 2268, 2219, 2191]
ch1 : [3194, 3193, 3194, 3197, 3197, 3200, 3194, 3192, 3194, 3199]
ch2 : [1277, 1278, 1263, 1273, 1286, 1287, 1286, 1279, 1280, 1282]
ch3 : [2877, 2881, 2879, 2881, 2884, 2883, 2878, 2878, 2880, 2883]
ch0 : [2377, 2280, 2116, 2237, 2259, 2316, 2231, 2241, 2378, 2291]
ch1 : [3192, 3191, 3196, 3200, 3195, 3194, 3184, 3194, 3192, 3190]
ch2 : [1276, 1268, 1279, 1291, 1289, 1283, 1284, 1286, 1282, 1274]
ch3 : [2876, 2878, 2879, 2885, 2886, 2882, 2891, 2880, 2879, 2880]
ch0 : [2068, 2203, 2265, 2240, 2259, 2237, 2199, 2381, 2250, 2100]
ch1 : [3200, 3195, 3189, 3196, 3193, 3195, 3195, 3192, 3205, 3197]
ch2 : [1283, 1289, 1290, 1292, 1291, 1273, 1282, 1276, 1269, 1289]
ch3 : [2884, 2883, 2882, 2886, 2880, 2879, 2880, 2883, 2876, 2882]
ch0 : [2227, 2270, 2330, 2242, 2219, 2376, 2290, 2039, 2214, 2253]
ch1 : [3204, 3203, 3188, 3192, 3194, 3193, 3191, 3197, 3194, 3192]
ch2 : [1292, 1294, 1283, 1288, 1290, 1277, 1275, 1279, 1296, 1290]
ch3 : [2878, 2882, 2880, 2878, 2885, 2881, 2879, 2880, 2879, 2882]
ch0 : [2244, 2266, 2230, 2208, 2322, 2221, 2095, 2218, 2252, 2338]
ch1 : [3195, 3183, 3194, 3196, 3194, 3196, 3195, 3193, 3196, 3195]
ch2 : [1293, 1298, 1287, 1289, 1286, 1266, 1290, 1291, 1299, 1300]
ch3 : [2879, 2880, 2877, 2880, 2878, 2880, 2881, 2884, 2885, 2885]
ch0 : [2287, 2233, 2351, 2359, 2042, 2208, 2257, 2259, 2271, 2236]
ch1 : [3194, 3195, 3192, 3204, 3196, 3196, 3197, 3194, 3202, 3198]
ch2 : [1293, 1290, 1293, 1279, 1286, 1295, 1295, 1296, 1293, 1295]
ch3 : [2878, 2881, 2879, 2880, 2883, 2882, 2881, 2882, 2885, 2873]
ch0 : [2214, 2372, 2221, 2076, 2225, 2252, 2361, 2263, 2232, 2289]
ch1 : [3196, 3197, 3195, 3197, 3194, 3197, 3194, 3196, 3195, 3196]
ch2 : [1290, 1283, 1277, 1293, 1298, 1299, 1307, 1296, 1292, 1296]
ch3 : [2878, 2878, 2877, 2880, 2879, 2884, 2880, 2887, 2890, 2879]
ch0 : [2315, 2056, 2205, 2248, 2253, 2281, 2235, 2213, 2380, 2251]
ch1 : [3196, 3200, 3194, 3192, 3193, 3194, 3197, 3197, 3197, 3195]
ch2 : [1283, 1286, 1296, 1303, 1296, 1294, 1295, 1295, 1289, 1278]
ch3 : [2877, 2879, 2883, 2875, 2884, 2875, 2881, 2881, 2880, 2875]
ch0 : [2064, 2220, 2240, 2335, 2261, 2218, 2235, 2360, 2154, 2192]
ch1 : [3199, 3195, 3200, 3204, 3187, 3190, 3192, 3190, 3191, 3190]
ch2 : [1292, 1302, 1301, 1298, 1293, 1294, 1296, 1282, 1287, 1300]
ch3 : [2886, 2881, 2878, 2883, 2880, 2878, 2896, 2873, 2880, 2886]
ch0 : [2262, 2242, 2257, 2240, 2222, 2379, 2274, 2042, 2208, 2247]
ch1 : [3196, 3195, 3195, 3194, 3189, 3187, 3197, 3196, 3197, 3192]
ch2 : [1301, 1299, 1300, 1298, 1298, 1288, 1279, 1298, 1304, 1306]
ch3 : [2883, 2888, 2881, 2879, 2884, 2883, 2875, 2886, 2879, 2884]
ch0 : [2336, 2280, 2219, 2228, 2317, 2189, 2170, 2254, 2243, 2276]
ch1 : [3194, 3193, 3200, 3191, 3195, 3196, 3190, 3197, 3192, 3195]
ch2 : [1297, 1295, 1298, 1284, 1288, 1283, 1300, 1303, 1289, 1301]
ch3 : [2879, 2878, 2878, 2885, 2879, 2880, 2887, 2881, 2883, 2875]
ch0 : [2227, 2250, 2382, 2258, 2023, 2204, 2257, 2325, 2262, 2233]
ch1 : [3195, 3198, 3191, 3195, 3195, 3200, 3190, 3197, 3197, 3195]
ch2 : [1313, 1300, 1281, 1270, 1291, 1308, 1307, 1299, 1297, 1310]
ch3 : [2876, 2883, 2882, 2880, 2880, 2888, 2884, 2882, 2876, 2880]
ch0 : [2230, 2381, 2232, 2179, 2255, 2247, 2267, 2243, 2244, 2380]
ch1 : [3195, 3191, 3198, 3192, 3197, 3195, 3190, 3194, 3207, 3190]
ch2 : [1297, 1289, 1281, 1300, 1305, 1302, 1306, 1304, 1299, 1295]
ch3 : [2882, 2881, 2880, 2883, 2887, 2885, 2883, 2884, 2880, 2877]
ch0 : [2267, 2022, 2204, 2262, 2267, 2309, 2227, 2230, 2361, 2282]
ch1 : [3193, 3194, 3196, 3190, 3192, 3195, 3195, 3193, 3192, 3195]
ch2 : [1285, 1299, 1311, 1308, 1308, 1303, 1297, 1308, 1293, 1293]
ch3 : [2878, 2878, 2883, 2879, 2887, 2879, 2882, 2883, 2883, 2884]
ch0 : [2171, 2240, 2256, 2283, 2266, 2247, 2383, 2253, 1997, 2200]
ch1 : [3194, 3195, 3200, 3196, 3196, 3195, 3194, 3195, 3193, 3206]
ch2 : [1306, 1308, 1307, 1305, 1308, 1306, 1302, 1284, 1296, 1312]
ch3 : [2885, 2888, 2883, 2888, 2887, 2879, 2880, 2877, 2883, 2879]
ch0 : [2249, 2260, 2288, 2231, 2239, 2385, 2298, 2153, 2262, 2256]
ch1 : [3198, 3191, 3198, 3195, 3193, 3191, 3196, 3195, 3191, 3191]
ch2 : [1307, 1308, 1302, 1303, 1305, 1302, 1295, 1307, 1310, 1316]
ch3 : [2884, 2887, 2879, 2882, 2879, 2884, 2879, 2885, 2882, 2882]
ch0 : [2273, 2259, 2224, 2384, 2323, 1961, 2182, 2261, 2267, 2311]
ch1 : [3196, 3192, 3194, 3196, 3195, 3192, 3195, 3198, 3188, 3190]
ch2 : [1310, 1307, 1305, 1306, 1290, 1299, 1317, 1315, 1313, 1306]
ch3 : [2877, 2881, 2882, 2883, 2881, 2881, 2886, 2883, 2885, 2876]
ch0 : [2236, 2233, 2367, 2297, 2151, 2247, 2256, 2290, 2262, 2222]
ch1 : [3195, 3197, 3196, 3209, 3194, 3192, 3196, 3196, 3193, 3201]
ch2 : [1307, 1303, 1298, 1293, 1312, 1310, 1317, 1311, 1305, 1309]
ch3 : [2880, 2880, 2881, 2881, 2882, 2882, 2870, 2878, 2882, 2885]
ch0 : [2298, 2305, 1957, 2186, 2252, 2265, 2283, 2236, 2229, 2379]
ch1 : [3190, 3197, 3196, 3195, 3197, 3203, 3192, 3190, 3197, 3192]
ch2 : [1314, 1294, 1300, 1310, 1315, 1314, 1311, 1309, 1314, 1317]
ch3 : [2882, 2875, 2879, 2884, 2885, 2883, 2880, 2884, 2880, 2880]
ch0 : [2286, 2142, 2253, 2259, 2272, 2281, 2204, 2225, 2279, 1950]
ch1 : [3196, 3195, 3197, 3193, 3195, 3190, 3191, 3190, 3193, 3197]
ch2 : [1301, 1311, 1318, 1314, 1316, 1322, 1317, 1311, 1298, 1300]
ch3 : [2877, 2888, 2883, 2888, 2870, 2880, 2879, 2884, 2880, 2882]
ch0 : [2265, 2279, 2268, 2225, 2196, 2339, 1958, 2166, 2245, 2263]
ch1 : [3196, 3192, 3195, 3201, 3194, 3191, 3196, 3191, 3190, 3197]
ch2 : [1318, 1316, 1314, 1319, 1312, 1298, 1302, 1318, 1318, 1315]
ch3 : [2879, 2884, 2884, 2880, 2885, 2877, 2879, 2882, 2875, 2878]
ch0 : [2319, 2227, 2252, 2385, 2314, 2122, 2247, 2249, 2279, 2275]
ch1 : [3191, 3200, 3191, 3193, 3197, 3194, 3192, 3190, 3192, 3191]
ch2 : [1315, 1312, 1311, 1309, 1297, 1311, 1314, 1316, 1316, 1316]
ch3 : [2885, 2878, 2881, 2879, 2880, 2882, 2882, 2880, 2882, 2882]
ch0 : [2226, 2192, 2369, 2066, 2161, 2246, 2268, 2313, 2241, 2253]
ch1 : [3197, 3205, 3195, 3196, 3193, 3196, 3197, 3194, 3194, 3197]
ch2 : [1315, 1315, 1298, 1301, 1323, 1325, 1316, 1313, 1311, 1316]
ch3 : [2885, 2879, 2881, 2879, 2883, 2884, 2885, 2883, 2882, 2880]
ch0 : [2384, 2248, 2112, 2243, 2263, 2280, 2274, 2229, 2197, 2343]
ch1 : [3203, 3192, 3194, 3194, 3196, 3205, 3203, 3198, 3201, 3197]
ch2 : [1308, 1301, 1312, 1315, 1315, 1321, 1317, 1314, 1315, 1302]
ch3 : [2884, 2882, 2885, 2884, 2883, 2883, 2881, 2881, 2882, 2878]
ch0 : [2178, 2146, 2231, 2279, 2311, 2246, 2242, 2379, 2310, 2098]
ch1 : [3196, 3198, 3196, 3195, 3193, 3190, 3205, 3196, 3197, 3196]
ch2 : [1299, 1311, 1319, 1326, 1319, 1312, 1315, 1311, 1300, 1313]
ch3 : [2877, 2883, 2882, 2894, 2879, 2883, 2878, 2894, 2889, 2886]
ch0 : [2235, 2259, 2283, 2271, 2240, 2189, 2369, 2201, 2134, 2244]
ch1 : [3196, 3197, 3194, 3193, 3194, 3199, 3195, 3196, 3197, 3200]
ch2 : [1323, 1318, 1310, 1317, 1327, 1314, 1303, 1297, 1319, 1327]
ch3 : [2886, 2883, 2882, 2882, 2879, 2876, 2879, 2875, 2885, 2885]
ch0 : [2275, 2300, 2255, 2248, 2381, 2306, 2085, 2219, 2263, 2254]
ch1 : [3191, 3193, 3194, 3195, 3181, 3191, 3195, 3194, 3197, 3197]
ch2 : [1327, 1303, 1313, 1316, 1301, 1302, 1310, 1322, 1321, 1318]
ch3 : [2897, 2877, 2879, 2880, 2882, 2883, 2881, 2886, 2882, 2886]
ch0 : [2284, 2242, 2201, 2387, 2246, 2140, 2236, 2250, 2336, 2255]
ch1 : [3198, 3196, 3194, 3195, 3203, 3196, 3196, 3200, 3196, 3197]
ch2 : [1315, 1316, 1315, 1304, 1304, 1314, 1327, 1322, 1318, 1316]
ch3 : [2884, 2880, 2895, 2882, 2881, 2884, 2886, 2893, 2885, 2881]
ch0 : [2251, 2382, 2324, 2065, 2221, 2256, 2240, 2267, 2235, 2195]
ch1 : [3193, 3191, 3196, 3196, 3193, 3197, 3200, 3193, 3194, 3197]
ch2 : [1319, 1311, 1304, 1312, 1328, 1323, 1324, 1323, 1327, 1321]
ch3 : [2877, 2880, 2888, 2880, 2885, 2883, 2885, 2883, 2878, 2884]
ch0 : [2370, 2221, 2128, 2241, 2272, 2352, 2261, 2234, 2384, 2316]
ch1 : [3188, 3194, 3194, 3191, 3196, 3197, 3194, 3195, 3190, 3194]
ch2 : [1309, 1303, 1323, 1332, 1325, 1321, 1320, 1316, 1324, 1309]
ch3 : [2885, 2878, 2888, 2884, 2884, 2880, 2880, 2882, 2879, 2883]
ch0 : [2063, 2210, 2260, 2255, 2283, 2224, 2225, 2365, 2289, 2093]
ch1 : [3196, 3194, 3193, 3191, 3193, 3197, 3195, 3196, 3196, 3197]
ch2 : [1314, 1328, 1330, 1329, 1325, 1321, 1322, 1306, 1302, 1324]
ch3 : [2883, 2884, 2884, 2885, 2880, 2882, 2882, 2882, 2881, 2883]
ch0 : [2236, 2260, 2348, 2260, 2242, 2378, 2342, 2042, 2233, 2255]
ch1 : [3193, 3194, 3192, 3195, 3194, 3200, 3191, 3193, 3198, 3197]
ch2 : [1333, 1317, 1320, 1321, 1325, 1324, 1314, 1312, 1327, 1327]
ch3 : [2879, 2888, 2883, 2879, 2882, 2874, 2879, 2885, 2885, 2884]
ch0 : [2263, 2277, 2237, 2226, 2373, 2281, 2091, 2236, 2252, 2349]
ch1 : [3191, 3196, 3195, 3195, 3192, 3193, 3193, 3196, 3196, 3193]
ch2 : [1328, 1324, 1323, 1322, 1313, 1303, 1327, 1333, 1326, 1324]
ch3 : [2888, 2878, 2883, 2884, 2879, 2881, 2883, 2885, 2883, 2883]
ch0 : [2262, 2239, 2345, 2329, 2056, 2205, 2268, 2251, 2281, 2234]
ch1 : [3193, 3196, 3190, 3194, 3208, 3191, 3195, 3198, 3194, 3196]
ch2 : [1320, 1323, 1320, 1307, 1312, 1328, 1330, 1326, 1323, 1323]
ch3 : [2880, 2882, 2882, 2882, 2874, 2885, 2887, 2882, 2884, 2884]
ch0 : [2227, 2387, 2264, 2083, 2229, 2254, 2347, 2260, 2240, 2292]
ch1 : [3187, 3194, 3195, 3199, 3195, 3196, 3196, 3197, 3195, 3196]
ch2 : [1325, 1320, 1314, 1330, 1335, 1329, 1326, 1323, 1323, 1327]
ch3 : [2884, 2882, 2879, 2879, 2883, 2885, 2884, 2878, 2878, 2885]
ch0 : [2340, 2085, 2209, 2255, 2253, 2278, 2248, 2240, 2382, 2334]
ch1 : [3191, 3195, 3197, 3194, 3194, 3195, 3195, 3199, 3193, 3197]
ch2 : [1331, 1314, 1328, 1331, 1328, 1322, 1326, 1327, 1317, 1308]
ch3 : [2884, 2888, 2885, 2884, 2886, 2883, 2884, 2885, 2879, 2873]
ch0 : [2060, 2223, 2272, 2360, 2282, 2230, 2252, 2331, 2159, 2208]
ch1 : [3195, 3196, 3193, 3199, 3193, 3191, 3187, 3192, 3196, 3196]
ch2 : [1325, 1337, 1336, 1326, 1324, 1329, 1330, 1312, 1311, 1329]
ch3 : [2883, 2886, 2885, 2888, 2881, 2863, 2887, 2885, 2878, 2885]
ch0 : [2249, 2267, 2265, 2221, 2238, 2390, 2257, 2049, 2226, 2265]
ch1 : [3196, 3195, 3193, 3195, 3192, 3187, 3191, 3199, 3197, 3189]
ch2 : [1332, 1328, 1329, 1328, 1335, 1320, 1310, 1323, 1335, 1337]
ch3 : [2887, 2889, 2885, 2881, 2884, 2881, 2881, 2885, 2883, 2883]
ch0 : [2341, 2273, 2246, 2245, 2366, 2208, 2195, 2247, 2262, 2273]
ch1 : [3191, 3195, 3195, 3196, 3197, 3201, 3197, 3192, 3197, 3199]
ch2 : [1328, 1325, 1326, 1326, 1313, 1315, 1333, 1335, 1331, 1328]
ch3 : [2887, 2883, 2881, 2885, 2884, 2882, 2888, 2886, 2879, 2884]
ch0 : [2258, 2249, 2387, 2252, 2034, 2211, 2268, 2331, 2297, 2240]
ch1 : [3201, 3194, 3195, 3195, 3197, 3192, 3194, 3192, 3190, 3197]
ch2 : [1324, 1326, 1319, 1309, 1324, 1336, 1334, 1333, 1324, 1326]
ch3 : [2878, 2886, 2884, 2881, 2878, 2884, 2901, 2886, 2883, 2880]
ch0 : [2349, 2037, 2219, 2254, 2284, 2290, 2231, 2242, 2384, 2251]
ch1 : [3205, 3197, 3195, 3202, 3187, 3191, 3195, 3183, 3192, 3196]
ch2 : [1315, 1327, 1342, 1340, 1332, 1335, 1330, 1337, 1322, 1315]
ch3 : [2884, 2884, 2879, 2887, 2892, 2882, 2882, 2879, 2884, 2882]
ch0 : [2181, 2257, 2251, 2265, 2268, 2240, 2386, 2310, 2009, 2208]
ch1 : [3200, 3194, 3193, 3190, 3191, 3195, 3196, 3194, 3193, 3196]
ch2 : [1337, 1337, 1334, 1333, 1337, 1333, 1330, 1316, 1329, 1343]
ch3 : [2884, 2886, 2885, 2871, 2879, 2885, 2885, 2880, 2882, 2885]
ch0 : [2256, 2270, 2307, 2224, 2236, 2363, 2269, 2174, 2252, 2264]
ch1 : [3194, 3194, 3196, 3194, 3193, 3193, 3196, 3197, 3190, 3197]
ch2 : [1357, 1342, 1337, 1345, 1343, 1326, 1328, 1342, 1348, 1347]
ch3 : [2889, 2885, 2879, 2892, 2885, 2882, 2880, 2885, 2886, 2870]
ch0 : [2282, 2276, 2230, 2386, 2253, 1980, 2191, 2257, 2268, 2284]
ch1 : [3192, 3195, 3195, 3195, 3193, 3200, 3207, 3194, 3199, 3196]
ch2 : [1349, 1348, 1344, 1340, 1323, 1334, 1344, 1345, 1336, 1337]
ch3 : [2888, 2882, 2885, 2881, 2875, 2878, 2882, 2885, 2875, 2879]
ch0 : [2227, 2226, 2374, 2264, 2163, 2244, 2252, 2293, 2254, 2218]
ch1 : [3194, 3197, 3192, 3194, 3196, 3195, 3197, 3193, 3195, 3196]
ch2 : [1335, 1336, 1324, 1321, 1347, 1339, 1331, 1336, 1328, 1336]
ch3 : [2879, 2884, 2881, 2877, 2885, 2885, 2884, 2883, 2884, 2883]
ch0 : [2381, 2328, 1963, 2197, 2251, 2275, 2301, 2236, 2217, 2379]
ch1 : [3196, 3197, 3198, 3197, 3189, 3199, 3192, 3198, 3186, 3194]
ch2 : [1335, 1319, 1333, 1343, 1338, 1340, 1340, 1338, 1339, 1333]
ch3 : [2892, 2878, 2882, 2885, 2884, 2883, 2875, 2880, 2882, 2878]
ch0 : [2287, 2158, 2237, 2258, 2295, 2257, 2218, 2330, 2302, 1953]
ch1 : [3193, 3194, 3200, 3197, 3196, 3195, 3196, 3197, 3196, 3184]
ch2 : [1330, 1336, 1345, 1343, 1346, 1344, 1347, 1343, 1315, 1332]
ch3 : [2888, 2889, 2887, 2883, 2884, 2883, 2879, 2882, 2881, 2882]
ch0 : [2185, 2261, 2271, 2290, 2242, 2239, 2383, 2269, 2144, 2252]
ch1 : [3198, 3191, 3193, 3194, 3193, 3196, 3193, 3196, 3197, 3197]
ch2 : [1344, 1342, 1339, 1339, 1334, 1343, 1317, 1322, 1334, 1342]
ch3 : [2885, 2884, 2883, 2879, 2879, 2882, 2875, 2881, 2884, 2884]
ch0 : [2260, 2286, 2263, 2222, 2195, 2307, 1943, 2170, 2242, 2275]
ch1 : [3192, 3192, 3195, 3199, 3195, 3197, 3185, 3191, 3194, 3196]
ch2 : [1341, 1333, 1348, 1339, 1339, 1321, 1318, 1349, 1334, 1343]
ch3 : [2883, 2886, 2882, 2884, 2884, 2875, 2881, 2883, 2885, 2887]
ch0 : [2306, 2240, 2233, 2383, 2310, 2125, 2233, 2263, 2277, 2264]
ch1 : [3201, 3196, 3193, 3195, 3197, 3196, 3195, 3196, 3196, 3197]
ch2 : [1338, 1342, 1338, 1333, 1312, 1343, 1342, 1342, 1342, 1337]
ch3 : [2882, 2882, 2885, 2875, 2884, 2886, 2886, 2886, 2887, 2883]
ch0 : [2212, 2191, 2353, 1980, 2163, 2248, 2263, 2315, 2212, 2235]
ch1 : [3196, 3195, 3184, 3195, 3178, 3199, 3195, 3196, 3200, 3195]
ch2 : [1337, 1333, 1328, 1327, 1342, 1339, 1335, 1341, 1350, 1334]
ch3 : [2883, 2877, 2880, 2878, 2884, 2887, 2885, 2881, 2884, 2883]
ch0 : [2371, 2303, 2121, 2241, 2240, 2275, 2262, 2218, 2191, 2308]
ch1 : [3188, 3201, 3198, 3195, 3194, 3196, 3193, 3200, 3195, 3192]
ch2 : [1328, 1318, 1333, 1340, 1334, 1331, 1326, 1327, 1324, 1304]
ch3 : [2880, 2882, 2880, 2883, 2885, 2885, 2883, 2884, 2883, 2882]
ch0 : [2026, 2153, 2237, 2272, 2298, 2228, 2238, 2381, 2284, 2106]
ch1 : [3195, 3196, 3192, 3194, 3193, 3195, 3190, 3194, 3192, 3194]
ch2 : [1307, 1327, 1329, 1333, 1326, 1324, 1324, 1319, 1315, 1323]
ch3 : [2880, 2883, 2884, 2883, 2881, 2881, 2868, 2883, 2881, 2877]
ch0 : [2231, 2262, 2295, 2266, 2224, 2195, 2328, 2082, 2154, 2251]
ch1 : [3189, 3194, 3196, 3197, 3195, 3191, 3194, 3197, 3192, 3209]
ch2 : [1324, 1328, 1330, 1327, 1328, 1323, 1302, 1301, 1329, 1326]
ch3 : [2879, 2882, 2884, 2881, 2880, 2888, 2879, 2875, 2884, 2880]
ch0 : [2272, 2330, 2245, 2240, 2385, 2257, 2105, 2250, 2256, 2273]
ch1 : [3195, 3193, 3195, 3195, 3191, 3191, 3197, 3194, 3198, 3195]
ch2 : [1322, 1318, 1314, 1317, 1310, 1296, 1308, 1316, 1315, 1313]
ch3 : [2882, 2880, 2872, 2879, 2875, 2880, 2878, 2878, 2869, 2882]
ch0 : [2277, 2235, 2199, 2347, 2164, 2152, 2249, 2257, 2327, 2253]
ch1 : [3196, 3191, 3196, 3193, 3194, 3197, 3191, 3198, 3187, 3197]
ch2 : [1310, 1305, 1307, 1295, 1289, 1310, 1308, 1307, 1300, 1301]
ch3 : [2881, 2883, 2877, 2882, 2880, 2884, 2884, 2885, 2885, 2880]
ch0 : [2254, 2388, 2325, 2084, 2245, 2270, 2272, 2272, 2239, 2208]
ch1 : [3190, 3191, 3204, 3199, 3195, 3191, 3201, 3195, 3198, 3197]
ch2 : [1298, 1292, 1282, 1292, 1299, 1300, 1296, 1291, 1291, 1289]
ch3 : [2882, 2882, 2885, 2883, 2870, 2886, 2889, 2882, 2889, 2882]
ch0 : [2346, 2241, 2141, 2252, 2271, 2326, 2247, 2257, 2389, 2326]
ch1 : [3193, 3195, 3197, 3197, 3192, 3202, 3195, 3181, 3194, 3206]
ch2 : [1278, 1275, 1290, 1309, 1286, 1285, 1283, 1280, 1273, 1268]
ch3 : [2876, 2882, 2886, 2885, 2885, 2881, 2878, 2885, 2875, 2879]
ch0 : [2074, 2227, 2254, 2259, 2284, 2232, 2208, 2365, 2229, 2123]
ch1 : [3198, 3195, 3201, 3191, 3195, 3194, 3199, 3193, 3195, 3195]
ch2 : [1270, 1282, 1273, 1278, 1274, 1271, 1271, 1262, 1256, 1274]
ch3 : [2874, 2886, 2882, 2885, 2880, 2888, 2885, 2880, 2880, 2880]
ch0 : [2237, 2273, 2341, 2246, 2261, 2386, 2362, 2069, 2238, 2271]
ch1 : [3195, 3197, 3193, 3197, 3193, 3196, 3196, 3201, 3194, 3192]
ch2 : [1280, 1275, 1270, 1269, 1256, 1272, 1254, 1261, 1274, 1266]
ch3 : [2892, 2882, 2875, 2884, 2882, 2882, 2880, 2883, 2885, 2885]
ch0 : [2258, 2290, 2248, 2209, 2379, 2292, 2125, 2240, 2283, 2340]
ch1 : [3193, 3192, 3197, 3189, 3192, 3194, 3197, 3197, 3193, 3194]
ch2 : [1270, 1266, 1264, 1265, 1251, 1246, 1263, 1269, 1265, 1257]
ch3 : [2888, 2888, 2883, 2882, 2878, 2876, 2882, 2884, 2883, 2883]
ch0 : [2259, 2256, 2387, 2319, 2068, 2220, 2264, 2255, 2266, 2234]
ch1 : [3197, 3194, 3196, 3191, 3191, 3196, 3193, 3195, 3192, 3187]
ch2 : [1258, 1263, 1260, 1249, 1242, 1257, 1258, 1261, 1270, 1256]
ch3 : [2881, 2879, 2893, 2882, 2884, 2884, 2887, 2875, 2884, 2882]
ch0 : [2205, 2386, 2261, 2108, 2239, 2277, 2330, 2272, 2253, 2388]
ch1 : [3193, 3195, 3193, 3191, 3196, 3191, 3196, 3192, 3193, 3195]
ch2 : [1251, 1245, 1241, 1255, 1260, 1257, 1253, 1250, 1252, 1251]
ch3 : [2881, 2880, 2879, 2883, 2884, 2883, 2883, 2879, 2881, 2881]
ch0 : [2326, 2052, 2222, 2286, 2253, 2281, 2243, 2210, 2397, 2263]
ch1 : [3200, 3196, 3192, 3191, 3193, 3193, 3196, 3194, 3193, 3194]
ch2 : [1238, 1241, 1255, 1254, 1255, 1255, 1254, 1247, 1237, 1233]
ch3 : [2876, 2877, 2883, 2880, 2882, 2884, 2880, 2885, 2879, 2880]
ch0 : [2268, 2253, 2304, 2251, 2218, 2393, 2251, 2084, 2237, 2270]
ch1 : [3192, 3193, 3190, 3200, 3191, 3193, 3195, 3200, 3194, 3194]
ch2 : [1256, 1257, 1256, 1258, 1242, 1242, 1231, 1260, 1261, 1257]
ch3 : [2886, 2885, 2877, 2880, 2883, 2879, 2881, 2871, 2883, 2882]
ch0 : [2362, 2273, 2235, 2308, 2381, 2080, 2220, 2265, 2253, 2280]
ch1 : [3190, 3195, 3195, 3194, 3191, 3196, 3194, 3181, 3200, 3197]
ch2 : [1255, 1247, 1253, 1253, 1243, 1244, 1261, 1261, 1262, 1259]
ch3 : [2881, 2880, 2879, 2879, 2877, 2888, 2882, 2884, 2884, 2882]
ch0 : [2226, 2221, 2391, 2266, 2075, 2253, 2277, 2347, 2286, 2248]
ch1 : [3193, 3200, 3204, 3195, 3197, 3195, 3192, 3193, 3197, 3195]
ch2 : [1258, 1259, 1256, 1240, 1256, 1251, 1262, 1256, 1259, 1260]
ch3 : [2886, 2882, 2880, 2881, 2882, 2888, 2884, 2884, 2880, 2881]
ch0 : [2245, 2373, 2123, 2205, 2258, 2272, 2289, 2252, 2239, 2390]
ch1 : [3193, 3192, 3195, 3188, 3182, 3189, 3193, 3196, 3187, 3196]
ch2 : [1262, 1253, 1254, 1270, 1264, 1265, 1266, 1263, 1265, 1256]
ch3 : [2882, 2878, 2884, 2886, 2885, 2884, 2877, 2882, 2882, 2875]
ch0 : [2288, 2074, 2227, 2270, 2362, 2271, 2234, 2259, 2332, 2201]
ch1 : [3194, 3195, 3194, 3195, 3191, 3196, 3194, 3192, 3193, 3196]
ch2 : [1243, 1264, 1267, 1268, 1270, 1269, 1259, 1253, 1253, 1251]
ch3 : [2879, 2886, 2882, 2884, 2884, 2879, 2880, 2883, 2883, 2879]
ch0 : [2195, 2267, 2272, 2285, 2248, 2254, 2394, 2282, 2052, 2225]
ch1 : [3197, 3192, 3194, 3189, 3191, 3197, 3188, 3204, 3195, 3194]
ch2 : [1270, 1270, 1270, 1267, 1267, 1282, 1245, 1252, 1266, 1279]
ch3 : [2885, 2884, 2883, 2884, 2884, 2877, 2877, 2881, 2879, 2885]
ch0 : [2269, 2364, 2302, 2252, 2236, 2347, 2210, 2204, 2271, 2283]
ch1 : [3191, 3182, 3195, 3183, 3197, 3198, 3195, 3197, 3193, 3191]
ch2 : [1269, 1270, 1268, 1269, 1274, 1258, 1259, 1277, 1279, 1281]
ch3 : [2878, 2885, 2880, 2881, 2883, 2882, 2883, 2884, 2879, 2884]
ch0 : [2250, 2245, 2365, 2251, 2202, 2266, 2261, 2297, 2285, 2279]
ch1 : [3194, 3200, 3193, 3182, 3195, 3192, 3193, 3192, 3193, 3192]
ch2 : [1263, 1265, 1255, 1251, 1266, 1265, 1261, 1258, 1261, 1267]
ch3 : [2877, 2884, 2869, 2883, 2883, 2883, 2885, 2882, 2888, 2878]
ch0 : [2373, 2267, 2029, 2220, 2276, 2277, 2303, 2252, 2242, 2383]
ch1 : [3196, 3192, 3187, 3199, 3190, 3196, 3193, 3196, 3196, 3190]
ch2 : [1245, 1245, 1259, 1269, 1273, 1267, 1258, 1257, 1261, 1252]
ch3 : [2890, 2881, 2879, 2884, 2887, 2885, 2882, 2881, 2881, 2881]
ch0 : [2319, 2193, 2265, 2256, 2294, 2269, 2280, 2394, 2302, 2013]
ch1 : [3199, 3195, 3193, 3200, 3187, 3194, 3195, 3194, 3200, 3195]
ch2 : [1249, 1271, 1281, 1276, 1276, 1273, 1274, 1271, 1263, 1266]
ch3 : [2877, 2885, 2886, 2884, 2885, 2882, 2884, 2884, 2879, 2878]
ch0 : [2219, 2260, 2275, 2280, 2241, 2247, 2369, 2287, 2171, 2263]
ch1 : [3195, 3196, 3193, 3193, 3193, 3195, 3189, 3191, 3187, 3199]
ch2 : [1272, 1299, 1292, 1284, 1285, 1285, 1274, 1274, 1288, 1289]
ch3 : [2887, 2883, 2888, 2884, 2879, 2883, 2878, 2884, 2889, 2883]
ch0 : [2267, 2289, 2262, 2249, 2390, 2307, 1993, 2206, 2266, 2279]
ch1 : [3196, 3195, 3194, 3182, 3190, 3196, 3191, 3196, 3190, 3192]
ch2 : [1287, 1289, 1285, 1293, 1288, 1285, 1282, 1301, 1292, 1288]
ch3 : [2885, 2883, 2886, 2886, 2885, 2884, 2884, 2887, 2885, 2893]
ch0 : [2311, 2253, 2248, 2373, 2308, 2169, 2263, 2265, 2300, 2267]
ch1 : [3196, 3193, 3195, 3191, 3197, 3196, 3190, 3187, 3191, 3194]
ch2 : [1280, 1282, 1287, 1276, 1271, 1289, 1299, 1291, 1281, 1279]
ch3 : [2893, 2884, 2891, 2884, 2882, 2889, 2886, 2884, 2888, 2886]
ch0 : [2233, 2392, 2314, 1978, 2189, 2256, 2246, 2316, 2239, 2238]
ch1 : [3196, 3193, 3196, 3196, 3197, 3192, 3197, 3196, 3191, 3195]
ch2 : [1286, 1284, 1270, 1270, 1274, 1282, 1276, 1272, 1275, 1274]
ch3 : [2887, 2883, 2884, 2885, 2879, 2878, 2884, 2889, 2887, 2892]
ch0 : [2382, 2283, 2146, 2268, 2269, 2267, 2263, 2256, 2295, 2333]
ch1 : [3193, 3195, 3191, 3195, 3193, 3194, 3197, 3195, 3197, 3194]
ch2 : [1256, 1237, 1250, 1263, 1269, 1266, 1260, 1249, 1244, 1224]
ch3 : [2888, 2886, 2888, 2876, 2891, 2892, 2890, 2890, 2892, 2891]
ch0 : [1958, 2201, 2261, 2276, 2304, 2246, 2230, 2391, 2300, 2152]
ch1 : [3197, 3194, 3195, 3194, 3195, 3197, 3196, 3186, 3196, 3191]
ch2 : [1234, 1252, 1248, 1245, 1236, 1234, 1239, 1223, 1212, 1220]
ch3 : [2891, 2897, 2902, 2892, 2894, 2890, 2898, 2892, 2892, 2898]
ch0 : [2268, 2311, 2255, 2245, 2391, 2303, 2143, 2248, 2272, 2290]
ch1 : [3189, 3195, 3190, 3194, 3191, 3195, 3196, 3197, 3194, 3192]
ch2 : [1204, 1196, 1194, 1196, 1205, 1178, 1180, 1181, 1173, 1176]
ch3 : [2896, 2894, 2895, 2890, 2894, 2894, 2900, 2895, 2896, 2896]
ch0 : [2270, 2216, 2218, 2334, 1968, 2189, 2250, 2280, 2291, 2251]
ch1 : [3189, 3194, 3198, 3194, 3198, 3194, 3192, 3194, 3192, 3194]
ch2 : [1176, 1172, 1171, 1148, 1151, 1168, 1165, 1163, 1153, 1152]
ch3 : [2894, 2896, 2899, 2892, 2893, 2898, 2897, 2899, 2896, 2896]
ch0 : [2256, 2390, 2331, 2132, 2253, 2270, 2296, 2290, 2226, 2201]
ch1 : [3195, 3193, 3197, 3193, 3194, 3195, 3192, 3193, 3194, 3193]
ch2 : [1148, 1140, 1116, 1133, 1137, 1129, 1123, 1125, 1117, 1115]
ch3 : [2901, 2900, 2900, 2902, 2911, 2898, 2897, 2898, 2891, 2900]
ch0 : [2371, 1984, 2176, 2259, 2276, 2319, 2224, 2263, 2390, 2330]
ch1 : [3196, 3199, 3200, 3193, 3194, 3191, 3206, 3193, 3182, 3196]
ch2 : [1096, 1103, 1106, 1108, 1096, 1098, 1091, 1083, 1087, 1079]
ch3 : [2896, 2894, 2899, 2896, 2898, 2894, 2893, 2894, 2895, 2894]
ch0 : [2120, 2248, 2259, 2284, 2279, 2225, 2216, 2332, 2063, 2167]
ch1 : [3195, 3195, 3190, 3194, 3196, 3197, 3200, 3194, 3196, 3197]
ch2 : [1090, 1092, 1091, 1084, 1075, 1074, 1078, 1059, 1047, 1063]
ch3 : [2900, 2898, 2898, 2897, 2897, 2891, 2896, 2897, 2896, 2898]
ch0 : [2260, 2275, 2318, 2246, 2247, 2382, 2311, 2098, 2247, 2254]
ch1 : [3195, 3201, 3199, 3193, 3195, 3195, 3192, 3191, 3196, 3191]
ch2 : [1062, 1064, 1062, 1057, 1053, 1038, 1030, 1034, 1047, 1038]
ch3 : [2900, 2888, 2896, 2893, 2886, 2895, 2900, 2896, 2898, 2902]
ch0 : [2273, 2264, 2219, 2192, 2272, 2139, 2181, 2247, 2258, 2302]
ch1 : [3193, 3195, 3197, 3195, 3195, 3191, 3196, 3196, 3209, 3196]
ch2 : [1039, 1032, 1030, 1030, 1014, 1013, 1028, 1027, 1023, 1017]
ch3 : [2900, 2895, 2896, 2900, 2895, 2881, 2893, 2910, 2895, 2894]
ch0 : [2243, 2239, 2389, 2338, 2100, 2227, 2257, 2281, 2265, 2220]
ch1 : [3193, 3197, 3194, 3196, 3191, 3198, 3186, 3203, 3193, 3197]
ch2 : [1010, 1010, 1005, 990, 996, 1008, 999, 998, 991, 986]
ch3 : [2896, 2894, 2892, 2896, 2896, 2895, 2895, 2892, 2890, 2894]
ch0 : [2195, 2346, 2205, 2146, 2246, 2270, 2310, 2234, 2248, 2384]
ch1 : [3197, 3181, 3195, 3195, 3195, 3195, 3193, 3195, 3197, 3194]
ch2 : [987, 966, 960, 984, 983, 980, 974, 971, 969, 971]
ch3 : [2897, 2892, 2887, 2894, 2909, 2893, 2895, 2889, 2893, 2880]
ch0 : [2358, 2078, 2236, 2248, 2249, 2268, 2231, 2192, 2285, 2226]
ch1 : [3195, 3196, 3191, 3199, 3197, 3194, 3191, 3195, 3206, 3197]
ch2 : [946, 954, 964, 970, 964, 956, 959, 958, 937, 930]
ch3 : [2893, 2896, 2896, 2895, 2891, 2893, 2893, 2893, 2892, 2889]
ch0 : [2125, 2225, 2260, 2308, 2249, 2247, 2381, 2329, 2049, 2214]
ch1 : [3194, 3195, 3195, 3191, 3190, 3190, 3187, 3196, 3194, 3197]
ch2 : [953, 961, 946, 951, 948, 948, 946, 937, 940, 955]
ch3 : [2898, 2896, 2895, 2893, 2888, 2894, 2893, 2898, 2897, 2894]
ch0 : [2258, 2252, 2265, 2209, 2188, 2386, 2262, 2131, 2236, 2264]
ch1 : [3193, 3190, 3198, 3191, 3191, 3195, 3197, 3197, 3196, 3192]
ch2 : [948, 954, 955, 954, 954, 943, 940, 959, 966, 969]
ch3 : [2893, 2891, 2897, 2893, 2896, 2888, 2892, 2893, 2895, 2895]
ch0 : [2318, 2261, 2235, 2379, 2298, 2060, 2207, 2271, 2244, 2268]
ch1 : [3195, 3193, 3192, 3192, 3193, 3198, 3184, 3195, 3197, 3191]
ch2 : [970, 961, 958, 964, 957, 959, 972, 973, 972, 971]
ch3 : [2891, 2892, 2888, 2891, 2885, 2892, 2890, 2892, 2896, 2896]
ch0 : [2260, 2174, 2359, 2220, 2114, 2225, 2264, 2345, 2246, 2233]
ch1 : [3191, 3187, 3188, 3193, 3192, 3195, 3191, 3192, 3197, 3190]
ch2 : [971, 975, 963, 958, 981, 985, 983, 988, 979, 983]
ch3 : [2893, 2893, 2888, 2884, 2889, 2898, 2902, 2895, 2876, 2903]
ch0 : [2373, 2302, 2042, 2220, 2267, 2248, 2275, 2240, 2210, 2307]
ch1 : [3188, 3192, 3194, 3195, 3191, 3196, 3197, 3194, 3195, 3195]
ch2 : [987, 974, 981, 996, 991, 998, 1000, 1007, 1003, 998]
ch3 : [2891, 2888, 2892, 2893, 2892, 2892, 2890, 2890, 2894, 2894]
ch0 : [2262, 2103, 2228, 2259, 2334, 2268, 2237, 2376, 2345, 2039]
ch1 : [3193, 3193, 3193, 3194, 3196, 3188, 3194, 3190, 3196, 3207]
ch2 : [990, 1007, 1019, 1033, 1030, 1019, 1022, 1025, 1015, 1022]
ch3 : [2889, 2889, 2887, 2890, 2893, 2879, 2890, 2894, 2888, 2893]
ch0 : [2222, 2261, 2248, 2286, 2260, 2220, 2368, 2325, 2099, 2233]
ch1 : [3195, 3195, 3200, 3196, 3195, 3196, 3195, 3198, 3200, 3193]
ch2 : [1029, 1035, 1041, 1046, 1046, 1057, 1034, 1034, 1043, 1064]
ch3 : [2897, 2896, 2894, 2891, 2891, 2888, 2891, 2888, 2892, 2891]
ch0 : [2260, 2344, 2260, 2232, 2347, 2385, 2050, 2220, 2261, 2258]
ch1 : [3194, 3196, 3193, 3194, 3193, 3192, 3187, 3183, 3202, 3195]
ch2 : [1068, 1063, 1068, 1069, 1074, 1063, 1067, 1088, 1086, 1089]
ch3 : [2892, 2889, 2887, 2887, 2887, 2888, 2895, 2888, 2891, 2888]
ch0 : [2273, 2237, 2215, 2374, 2302, 2085, 2232, 2278, 2376, 2255]
ch1 : [3195, 3195, 3195, 3194, 3195, 3193, 3193, 3190, 3199, 3195]
ch2 : [1093, 1091, 1094, 1076, 1079, 1098, 1103, 1108, 1106, 1104]
ch3 : [2888, 2887, 2884, 2887, 2874, 2882, 2874, 2885, 2888, 2881]
ch0 : [2240, 2306, 2367, 2062, 2196, 2280, 2262, 2292, 2236, 2241]
ch1 : [3193, 3196, 3189, 3198, 3197, 3193, 3197, 3193, 3195, 3196]
ch2 : [1104, 1118, 1102, 1103, 1120, 1127, 1124, 1120, 1122, 1129]
ch3 : [2885, 2884, 2882, 2872, 2881, 2886, 2878, 2884, 2882, 2879]
ch0 : [2396, 2301, 2103, 2236, 2277, 2359, 2279, 2227, 2287, 2314]
ch1 : [3195, 3195, 3199, 3197, 3193, 3200, 3197, 3192, 3196, 3190]
ch2 : [1120, 1110, 1131, 1141, 1142, 1140, 1135, 1136, 1136, 1126]
ch3 : [2884, 2880, 2880, 2885, 2883, 2880, 2874, 2878, 2881, 2879]
ch0 : [2105, 2199, 2276, 2259, 2300, 2247, 2244, 2392, 2279, 2080]
ch1 : [3191, 3195, 3194, 3197, 3194, 3194, 3197, 3195, 3196, 3196]
ch2 : [1130, 1146, 1150, 1148, 1144, 1152, 1150, 1142, 1133, 1156]
ch3 : [2884, 2878, 2878, 2874, 2878, 2876, 2880, 2876, 2876, 2880]
ch0 : [2240, 2266, 2350, 2279, 2252, 2262, 2317, 2185, 2214, 2276]
ch1 : [3194, 3196, 3196, 3192, 3196, 3194, 3193, 3196, 3195, 3195]
ch2 : [1159, 1158, 1157, 1150, 1159, 1156, 1145, 1141, 1162, 1169]
ch3 : [2879, 2880, 2884, 2874, 2876, 2880, 2876, 2864, 2879, 2880]
ch0 : [2249, 2284, 2251, 2239, 2397, 2257, 2067, 2231, 2276, 2337]
ch1 : [3200, 3196, 3193, 3198, 3193, 3193, 3196, 3195, 3196, 3191]
ch2 : [1166, 1162, 1161, 1162, 1154, 1140, 1165, 1165, 1169, 1166]
ch3 : [2873, 2880, 2877, 2878, 2875, 2876, 2879, 2880, 2883, 2880]
ch0 : [2287, 2233, 2240, 2328, 2226, 2190, 2273, 2261, 2305, 2262]
ch1 : [3192, 3190, 3193, 3193, 3199, 3196, 3191, 3197, 3195, 3193]
ch2 : [1166, 1164, 1164, 1141, 1148, 1166, 1171, 1172, 1177, 1164]
ch3 : [2876, 2876, 2878, 2877, 2876, 2880, 2878, 2885, 2879, 2882]
ch0 : [2275, 2394, 2317, 2042, 2237, 2265, 2343, 2295, 2257, 2251]
ch1 : [3195, 3190, 3192, 3197, 3195, 3196, 3197, 3193, 3193, 3196]
ch2 : [1165, 1161, 1142, 1167, 1171, 1171, 1168, 1166, 1161, 1170]
ch3 : [2878, 2876, 2874, 2870, 2882, 2880, 2881, 2876, 2878, 2871]
ch0 : [2386, 2235, 2216, 2277, 2270, 2288, 2271, 2267, 2404, 2291]
ch1 : [3195, 3192, 3194, 3195, 3191, 3191, 3194, 3190, 3192, 3193]
ch2 : [1150, 1146, 1168, 1171, 1170, 1174, 1172, 1170, 1165, 1146]
ch3 : [2877, 2880, 2879, 2880, 2884, 2879, 2878, 2884, 2878, 2881]
ch0 : [2275, 2285, 2304, 2273, 2270, 2398, 2344, 2027, 2234, 2281]
ch1 : [3195, 3197, 3195, 3190, 3187, 3193, 3193, 3196, 3194, 3189]
ch2 : [1176, 1174, 1171, 1171, 1172, 1167, 1154, 1167, 1181, 1183]
ch3 : [2888, 2882, 2880, 2875, 2883, 2881, 2881, 2880, 2884, 2883]
ch0 : [2292, 2291, 2247, 2237, 2399, 2308, 2186, 2269, 2272, 2297]
ch1 : [3192, 3195, 3197, 3202, 3193, 3192, 3195, 3190, 3193, 3193]
ch2 : [1177, 1171, 1173, 1172, 1158, 1155, 1177, 1176, 1179, 1174]
ch3 : [2883, 2880, 2876, 2882, 2878, 2878, 2885, 2886, 2885, 2884]
ch0 : [2257, 2260, 2397, 2354, 2014, 2219, 2280, 2290, 2302, 2243]
ch1 : [3195, 3191, 3189, 3192, 3195, 3182, 3196, 3200, 3195, 3193]
ch2 : [1177, 1178, 1170, 1158, 1170, 1184, 1184, 1185, 1172, 1177]
ch3 : [2880, 2879, 2876, 2878, 2878, 2884, 2889, 2882, 2880, 2877]
ch0 : [2245, 2397, 2325, 2189, 2268, 2282, 2288, 2283, 2259, 2400]
ch1 : [3195, 3193, 3198, 3195, 3194, 3186, 3194, 3196, 3194, 3192]
ch2 : [1175, 1169, 1162, 1180, 1181, 1189, 1185, 1182, 1182, 1183]
ch3 : [2883, 2883, 2878, 2881, 2882, 2883, 2879, 2881, 2875, 2878]
ch0 : [2391, 1998, 2222, 2297, 2290, 2319, 2246, 2255, 2398, 2298]
ch1 : [3191, 3197, 3194, 3193, 3193, 3192, 3194, 3182, 3193, 3197]
ch2 : [1168, 1176, 1188, 1189, 1189, 1183, 1183, 1183, 1171, 1170]
ch3 : [2876, 2880, 2884, 2887, 2884, 2867, 2876, 2881, 2878, 2878]
ch0 : [2177, 2266, 2270, 2293, 2284, 2260, 2394, 2299, 1995, 2210]
ch1 : [3195, 3194, 3194, 3198, 3187, 3195, 3195, 3195, 3196, 3192]
ch2 : [1185, 1190, 1189, 1191, 1188, 1182, 1180, 1175, 1180, 1194]
ch3 : [2883, 2882, 2882, 2878, 2878, 2881, 2882, 2890, 2874, 2884]
ch0 : [2264, 2287, 2303, 2254, 2248, 2401, 2308, 2175, 2255, 2274]
ch1 : [3195, 3192, 3191, 3195, 3198, 3193, 3195, 3196, 3197, 3184]
ch2 : [1195, 1193, 1190, 1190, 1190, 1180, 1178, 1192, 1198, 1198]
ch3 : [2882, 2882, 2879, 2881, 2875, 2878, 2881, 2884, 2877, 2881]
ch0 : [2301, 2280, 2241, 2322, 2310, 1976, 2200, 2281, 2288, 2326]
ch1 : [3195, 3196, 3194, 3193, 3197, 3197, 3194, 3197, 3197, 3196]
ch2 : [1196, 1199, 1195, 1197, 1183, 1184, 1207, 1205, 1199, 1198]
ch3 : [2881, 2874, 2881, 2881, 2879, 2880, 2880, 2884, 2880, 2878]
ch0 : [2256, 2260, 2400, 2303, 2164, 2271, 2270, 2293, 2280, 2228]
ch1 : [3194, 3194, 3196, 3193, 3194, 3189, 3197, 3193, 3194, 3196]
ch2 : [1196, 1198, 1188, 1182, 1201, 1205, 1203, 1202, 1197, 1205]
ch3 : [2876, 2880, 2881, 2879, 2878, 2880, 2888, 2880, 2868, 2879]
ch0 : [2262, 2322, 1968, 2191, 2258, 2289, 2296, 2246, 2260, 2392]
ch1 : [3193, 3196, 3196, 3206, 3194, 3192, 3194, 3196, 3197, 3197]
ch2 : [1202, 1188, 1190, 1209, 1207, 1204, 1200, 1201, 1203, 1195]
ch3 : [2880, 2877, 2880, 2882, 2875, 2882, 2874, 2881, 2881, 2888]
ch0 : [2324, 2147, 2255, 2271, 2307, 2276, 2239, 2217, 2330, 1971]
ch1 : [3200, 3197, 3197, 3191, 3180, 3191, 3198, 3205, 3196, 3196]
ch2 : [1188, 1202, 1209, 1204, 1208, 1191, 1209, 1211, 1189, 1194]
ch3 : [2877, 2882, 2880, 2882, 2875, 2881, 2878, 2878, 2876, 2878]
ch0 : [2182, 2272, 2289, 2317, 2250, 2252, 2391, 2335, 2148, 2251]
ch1 : [3192, 3194, 3193, 3200, 3196, 3197, 3196, 3187, 3197, 3192]
ch2 : [1215, 1211, 1210, 1204, 1203, 1209, 1198, 1192, 1206, 1215]
ch3 : [2884, 2882, 2877, 2875, 2881, 2879, 2880, 2891, 2875, 2885]
ch0 : [2284, 2301, 2272, 2235, 2217, 2389, 2009, 2187, 2262, 2283]
ch1 : [3196, 3192, 3193, 3198, 3193, 3191, 3196, 3198, 3187, 3195]
ch2 : [1213, 1214, 1214, 1206, 1208, 1191, 1192, 1211, 1213, 1212]
ch3 : [2882, 2882, 2881, 2880, 2882, 2874, 2878, 2893, 2887, 2884]
ch0 : [2331, 2235, 2265, 2399, 2271, 2142, 2276, 2287, 2303, 2279]
ch1 : [3191, 3193, 3191, 3207, 3192, 3203, 3198, 3190, 3195, 3193]
ch2 : [1208, 1206, 1206, 1200, 1192, 1200, 1217, 1209, 1199, 1207]
ch3 : [2879, 2882, 2882, 2879, 2878, 2880, 2882, 2888, 2879, 2882]
ch0 : [2248, 2219, 2320, 2073, 2188, 2263, 2275, 2329, 2243, 2275]
ch1 : [3196, 3195, 3195, 3194, 3199, 3194, 3192, 3195, 3195, 3197]
ch2 : [1206, 1206, 1191, 1191, 1209, 1216, 1208, 1208, 1213, 1195]
ch3 : [2879, 2881, 2880, 2880, 2883, 2884, 2885, 2881, 2878, 2879]
ch0 : [2400, 2319, 2124, 2254, 2276, 2291, 2287, 2251, 2202, 2392]
ch1 : [3190, 3193, 3195, 3194, 3198, 3192, 3192, 3189, 3195, 3190]
ch2 : [1198, 1189, 1200, 1213, 1210, 1204, 1202, 1213, 1201, 1185]
ch3 : [2882, 2879, 2884, 2886, 2884, 2880, 2877, 2880, 2877, 2891]
ch0 : [2127, 2195, 2276, 2294, 2336, 2267, 2273, 2414, 2320, 2131]
ch1 : [3191, 3198, 3193, 3192, 3196, 3197, 3194, 3195, 3196, 3195]
ch2 : [1191, 1207, 1210, 1191, 1203, 1201, 1205, 1197, 1188, 1201]
ch3 : [2878, 2889, 2894, 2884, 2884, 2881, 2880, 2879, 2885, 2885]
ch0 : [2257, 2289, 2313, 2308, 2236, 2223, 2374, 2191, 2179, 2259]
ch1 : [3196, 3202, 3194, 3197, 3194, 3197, 3196, 3195, 3194, 3187]
ch2 : [1209, 1208, 1208, 1205, 1205, 1204, 1192, 1188, 1208, 1210]
ch3 : [2885, 2881, 2879, 2882, 2889, 2881, 2881, 2882, 2891, 2884]
ch0 : [2297, 2339, 2265, 2267, 2403, 2332, 2130, 2245, 2280, 2298]
ch1 : [3192, 3197, 3197, 3197, 3190, 3199, 3197, 3197, 3194, 3191]
ch2 : [1211, 1203, 1203, 1205, 1205, 1188, 1202, 1211, 1206, 1209]
ch3 : [2886, 2882, 2881, 2881, 2879, 2885, 2882, 2881, 2883, 2885]
ch0 : [2294, 2270, 2207, 2362, 2196, 2158, 2270, 2298, 2328, 2273]
ch1 : [3192, 3193, 3199, 3195, 3197, 3192, 3189, 3198, 3202, 3197]
ch2 : [1192, 1208, 1199, 1193, 1172, 1209, 1212, 1215, 1211, 1206]
ch3 : [2885, 2884, 2885, 2888, 2875, 2886, 2895, 2884, 2882, 2881]
ch0 : [2276, 2400, 2323, 2103, 2238, 2263, 2279, 2301, 2252, 2223]
ch1 : [3196, 3194, 3200, 3193, 3190, 3193, 3197, 3193, 3193, 3195]
ch2 : [1206, 1204, 1195, 1197, 1212, 1213, 1211, 1209, 1208, 1220]
ch3 : [2877, 2885, 2878, 2880, 2883, 2885, 2884, 2882, 2884, 2885]
ch0 : [2391, 2285, 2142, 2259, 2291, 2351, 2276, 2273, 2396, 2372]
ch1 : [3189, 3188, 3192, 3192, 3193, 3197, 3200, 3194, 3194, 3193]
ch2 : [1196, 1189, 1214, 1212, 1208, 1211, 1210, 1194, 1211, 1191]
ch3 : [2885, 2877, 2882, 2882, 2884, 2888, 2880, 2881, 2897, 2884]
ch0 : [2088, 2248, 2277, 2275, 2281, 2258, 2226, 2394, 2253, 2141]
ch1 : [3194, 3193, 3191, 3195, 3196, 3195, 3196, 3198, 3194, 3198]
ch2 : [1203, 1217, 1220, 1214, 1217, 1214, 1212, 1202, 1178, 1217]
ch3 : [2884, 2887, 2883, 2888, 2882, 2877, 2875, 2880, 2875, 2885]
ch0 : [2265, 2306, 2259, 2218, 2406, 2277, 2118, 2252, 2280, 2371]
ch1 : [3190, 3191, 3194, 3192, 3193, 3192, 3202, 3196, 3195, 3193]
ch2 : [1223, 1217, 1217, 1218, 1208, 1198, 1221, 1225, 1220, 1219]
ch3 : [2884, 2881, 2882, 2884, 2879, 2871, 2884, 2884, 2883, 2887]
ch0 : [2288, 2252, 2395, 2319, 2062, 2244, 2275, 2268, 2305, 2257]
ch1 : [3194, 3194, 3191, 3190, 3205, 3194, 3197, 3197, 3198, 3194]
ch2 : [1220, 1217, 1216, 1202, 1211, 1223, 1219, 1221, 1219, 1219]
ch3 : [2878, 2884, 2883, 2880, 2875, 2895, 2885, 2883, 2881, 2882]
ch0 : [2228, 2399, 2292, 2100, 2267, 2272, 2364, 2274, 2261, 2380]
ch1 : [3194, 3192, 3193, 3192, 3190, 3191, 3196, 3196, 3181, 3189]
ch2 : [1222, 1209, 1198, 1216, 1224, 1227, 1215, 1219, 1215, 1218]
ch3 : [2882, 2878, 2877, 2884, 2885, 2888, 2883, 2875, 2884, 2884]
ch0 : [2394, 2061, 2226, 2280, 2268, 2291, 2253, 2242, 2395, 2278]
ch1 : [3191, 3188, 3195, 3198, 3189, 3192, 3196, 3195, 3194, 3192]
ch2 : [1202, 1206, 1224, 1222, 1219, 1221, 1219, 1215, 1210, 1203]
ch3 : [2876, 2884, 2883, 2881, 2886, 2882, 2879, 2882, 2883, 2881]
ch0 : [2096, 2259, 2284, 2382, 2269, 2226, 2324, 2373, 2081, 2220]
ch1 : [3195, 3193, 3197, 3192, 3194, 3195, 3191, 3195, 3196, 3200]
ch2 : [1216, 1223, 1225, 1219, 1219, 1220, 1222, 1209, 1207, 1224]
ch3 : [2883, 2879, 2885, 2886, 2881, 2880, 2883, 2882, 2884, 2887]
ch0 : [2268, 2264, 2295, 2261, 2235, 2387, 2337, 2094, 2249, 2278]
ch1 : [3180, 3194, 3193, 3193, 3192, 3196, 3197, 3199, 3193, 3200]
ch2 : [1227, 1226, 1224, 1219, 1220, 1212, 1201, 1220, 1224, 1221]
ch3 : [2883, 2885, 2887, 2878, 2884, 2884, 2880, 2888, 2886, 2886]
ch0 : [2366, 2285, 2249, 2297, 2374, 2135, 2218, 2283, 2270, 2302]
ch1 : [3191, 3191, 3193, 3193, 3192, 3196, 3197, 3192, 3193, 3197]
ch2 : [1221, 1213, 1221, 1216, 1202, 1207, 1221, 1225, 1220, 1223]
ch3 : [2888, 2875, 2881, 2879, 2884, 2884, 2885, 2882, 2885, 2881]
ch0 : [2262, 2255, 2405, 2331, 2065, 2237, 2275, 2374, 2295, 2256]
ch1 : [3194, 3194, 3201, 3193, 3200, 3194, 3191, 3191, 3197, 3194]
ch2 : [1210, 1221, 1214, 1200, 1221, 1229, 1223, 1223, 1218, 1220]
ch3 : [2884, 2881, 2870, 2883, 2886, 2885, 2886, 2885, 2881, 2880]
ch0 : [2270, 2367, 2177, 2214, 2279, 2274, 2281, 2267, 2267, 2412]
ch1 : [3192, 3194, 3192, 3194, 3197, 3200, 3196, 3193, 3196, 3193]
ch2 : [1236, 1208, 1206, 1225, 1225, 1226, 1224, 1218, 1220, 1214]
ch3 : [2886, 2882, 2882, 2885, 2886, 2885, 2883, 2882, 2890, 2883]
ch0 : [2323, 2060, 2250, 2278, 2375, 2287, 2253, 2255, 2387, 2246]
ch1 : [3200, 3199, 3194, 3192, 3187, 3196, 3187, 3193, 3192, 3197]
ch2 : [1203, 1218, 1230, 1226, 1220, 1220, 1220, 1222, 1212, 1209]
ch3 : [2883, 2885, 2884, 2888, 2887, 2884, 2885, 2882, 2885, 2881]
ch0 : [2234, 2282, 2267, 2295, 2262, 2271, 2400, 2326, 2054, 2235]
ch1 : [3196, 3195, 3196, 3194, 3199, 3189, 3196, 3197, 3200, 3196]
ch2 : [1223, 1230, 1225, 1225, 1218, 1228, 1217, 1206, 1221, 1229]
ch3 : [2889, 2873, 2884, 2885, 2884, 2885, 2885, 2881, 2884, 2886]
ch0 : [2280, 2348, 2306, 2262, 2268, 2354, 2252, 2212, 2267, 2271]
ch1 : [3194, 3196, 3197, 3192, 3193, 3186, 3190, 3197, 3194, 3200]
ch2 : [1227, 1223, 1222, 1219, 1222, 1217, 1208, 1225, 1232, 1228]
ch3 : [2888, 2882, 2882, 2887, 2885, 2882, 2886, 2883, 2887, 2885]
ch0 : [2296, 2264, 2283, 2399, 2328, 2037, 2221, 2277, 2309, 2308]
ch1 : [3192, 3193, 3196, 3192, 3194, 3194, 3194, 3191, 3196, 3196]
ch2 : [1225, 1223, 1227, 1219, 1209, 1220, 1229, 1237, 1225, 1223]
ch3 : [2887, 2888, 2886, 2884, 2882, 2884, 2886, 2887, 2892, 2884]
ch0 : [2258, 2256, 2365, 2319, 2197, 2284, 2271, 2296, 2272, 2262]
ch1 : [3195, 3198, 3193, 3196, 3196, 3192, 3192, 3191, 3193, 3197]
ch2 : [1227, 1223, 1211, 1213, 1229, 1225, 1227, 1231, 1217, 1222]
ch3 : [2885, 2884, 2882, 2884, 2887, 2888, 2888, 2886, 2883, 2884]
ch0 : [2387, 2286, 2040, 2224, 2278, 2268, 2313, 2229, 2249, 2381]
ch1 : [3200, 3194, 3195, 3196, 3193, 3196, 3195, 3195, 3196, 3196]
ch2 : [1222, 1208, 1215, 1236, 1231, 1227, 1220, 1222, 1229, 1214]
ch3 : [2885, 2880, 2883, 2886, 2886, 2888, 2882, 2878, 2883, 2879]
ch0 : [2284, 2193, 2278, 2265, 2310, 2280, 2266, 2395, 2319, 2020]
ch1 : [3188, 3194, 3192, 3190, 3191, 3193, 3193, 3192, 3192, 3199]
ch2 : [1215, 1227, 1229, 1228, 1233, 1228, 1229, 1222, 1209, 1221]
ch3 : [2883, 2887, 2887, 2888, 2883, 2885, 2884, 2886, 2883, 2885]
ch0 : [2229, 2266, 2287, 2329, 2252, 2241, 2389, 2315, 2176, 2276]
ch1 : [3192, 3196, 3194, 3193, 3193, 3203, 3192, 3198, 3196, 3196]
ch2 : [1237, 1231, 1231, 1229, 1228, 1230, 1223, 1217, 1225, 1235]
ch3 : [2889, 2887, 2888, 2882, 2889, 2883, 2886, 2886, 2886, 2888]
ch0 : [2282, 2300, 2273, 2250, 2401, 2362, 1991, 2221, 2273, 2307]
ch1 : [3196, 3194, 3191, 3196, 3192, 3200, 3193, 3199, 3193, 3195]
ch2 : [1236, 1237, 1218, 1233, 1226, 1204, 1218, 1236, 1247, 1230]
ch3 : [2884, 2886, 2881, 2882, 2886, 2883, 2896, 2881, 2887, 2882]
ch0 : [2314, 2267, 2255, 2388, 2391, 2176, 2276, 2275, 2306, 2303]
ch1 : [3196, 3195, 3195, 3195, 3194, 3196, 3194, 3195, 3195, 3196]
ch2 : [1231, 1227, 1233, 1218, 1212, 1233, 1236, 1233, 1233, 1228]
ch3 : [2879, 2882, 2886, 2881, 2885, 2887, 2889, 2888, 2889, 2886]
ch0 : [2256, 2398, 2318, 1989, 2217, 2272, 2279, 2318, 2260, 2261]
ch1 : [3196, 3190, 3190, 3191, 3194, 3201, 3192, 3197, 3200, 3194]
ch2 : [1231, 1228, 1213, 1222, 1234, 1235, 1229, 1224, 1231, 1224]
ch3 : [2882, 2885, 2884, 2883, 2886, 2884, 2887, 2885, 2888, 2887]
ch0 : [1981, 2203, 2285, 2287, 2324, 2254, 2250, 2396, 2320, 2165]
ch1 : [3196, 3193, 3198, 3192, 3196, 3197, 3192, 3183, 3196, 3198]
ch2 : [1219, 1236, 1235, 1234, 1228, 1230, 1226, 1219, 1216, 1234]
ch3 : [2887, 2889, 2888, 2877, 2890, 2884, 2887, 2886, 2884, 2891]
ch0 : [2269, 2284, 2315, 2293, 2231, 2256, 2356, 1965, 2198, 2280]
ch1 : [3195, 3195, 3192, 3195, 3192, 3189, 3196, 3206, 3205, 3193]
ch2 : [1232, 1234, 1236, 1233, 1234, 1232, 1221, 1220, 1238, 1241]
ch3 : [2892, 2889, 2889, 2885, 2887, 2887, 2879, 2886, 2887, 2886]
ch0 : [2300, 2299, 2259, 2258, 2399, 2321, 2162, 2276, 2291, 2304]
ch1 : [3196, 3196, 3193, 3194, 3192, 3196, 3196, 3191, 3192, 3197]
ch2 : [1238, 1231, 1233, 1230, 1223, 1217, 1232, 1232, 1235, 1233]
ch3 : [2892, 2886, 2883, 2883, 2885, 2888, 2887, 2887, 2875, 2887]
ch0 : [2296, 2239, 2225, 2310, 1963, 2198, 2262, 2296, 2322, 2256]
ch1 : [3194, 3196, 3197, 3191, 3194, 3197, 3192, 3202, 3195, 3190]
ch2 : [1235, 1233, 1228, 1214, 1222, 1239, 1239, 1242, 1233, 1232]
ch3 : [2879, 2884, 2889, 2882, 2887, 2889, 2890, 2883, 2884, 2885]
ch0 : [2260, 2404, 2345, 2150, 2265, 2281, 2302, 2293, 2248, 2213]
ch1 : [3196, 3195, 3194, 3195, 3194, 3197, 3196, 3196, 3193, 3185]
ch2 : [1228, 1225, 1217, 1230, 1237, 1239, 1231, 1234, 1234, 1236]
ch3 : [2889, 2888, 2882, 2886, 2883, 2885, 2887, 2885, 2887, 2886]
ch0 : [2363, 2000, 2182, 2263, 2291, 2317, 2238, 2265, 2402, 2338]
ch1 : [3193, 3186, 3195, 3194, 3197, 3196, 3195, 3196, 3202, 3194]
ch2 : [1212, 1219, 1238, 1233, 1239, 1234, 1233, 1232, 1233, 1222]
ch3 : [2886, 2883, 2896, 2888, 2884, 2886, 2885, 2884, 2884, 2884]
ch0 : [2140, 2251, 2268, 2298, 2284, 2237, 2198, 2331, 2059, 2187]
ch1 : [3194, 3191, 3195, 3196, 3195, 3197, 3197, 3194, 3197, 3190]
ch2 : [1233, 1240, 1248, 1243, 1236, 1234, 1235, 1220, 1221, 1244]
ch3 : [2886, 2882, 2886, 2886, 2886, 2884, 2889, 2890, 2884, 2886]
ch0 : [2260, 2293, 2330, 2262, 2259, 2413, 2281, 2126, 2256, 2281]
ch1 : [3190, 3194, 3196, 3193, 3200, 3193, 3194, 3194, 3196, 3196]
ch2 : [1241, 1220, 1234, 1234, 1248, 1228, 1219, 1232, 1241, 1242]
ch3 : [2888, 2890, 2883, 2888, 2889, 2883, 2884, 2888, 2887, 2883]
ch0 : [2292, 2280, 2247, 2204, 2379, 2128, 2173, 2261, 2286, 2318]
ch1 : [3195, 3197, 3195, 3199, 3194, 3195, 3192, 3196, 3208, 3198]
ch2 : [1247, 1233, 1238, 1238, 1225, 1221, 1239, 1243, 1239, 1235]
ch3 : [2888, 2884, 2886, 2888, 2888, 2883, 2886, 2888, 2886, 2886]
ch0 : [2253, 2268, 2385, 2327, 2116, 2247, 2272, 2305, 2292, 2277]
ch1 : [3201, 3190, 3203, 3193, 3192, 3196, 3195, 3192, 3196, 3194]
ch2 : [1238, 1238, 1237, 1221, 1231, 1247, 1239, 1239, 1239, 1236]
ch3 : [2883, 2889, 2887, 2882, 2888, 2888, 2887, 2887, 2885, 2881]
ch0 : [2357, 2109, 2225, 2252, 2313, 2287, 2246, 2211, 2405, 2212]
ch1 : [3195, 3192, 3191, 3194, 3196, 3197, 3197, 3193, 3193, 3191]
ch2 : [1224, 1230, 1245, 1241, 1240, 1238, 1238, 1232, 1224, 1221]
ch3 : [2872, 2882, 2883, 2885, 2889, 2883, 2886, 2885, 2883, 2885]
ch0 : [2164, 2265, 2294, 2339, 2258, 2262, 2413, 2318, 2107, 2245]
ch1 : [3193, 3192, 3196, 3208, 3191, 3193, 3194, 3198, 3198, 3196]
ch2 : [1237, 1244, 1246, 1237, 1241, 1250, 1234, 1228, 1231, 1243]
ch3 : [2884, 2888, 2881, 2878, 2879, 2888, 2888, 2884, 2887, 2887]
ch0 : [2283, 2288, 2302, 2253, 2221, 2400, 2243, 2159, 2271, 2279]
ch1 : [3193, 3203, 3192, 3191, 3193, 3196, 3193, 3196, 3193, 3190]
ch2 : [1243, 1242, 1237, 1237, 1236, 1225, 1215, 1241, 1243, 1237]
ch3 : [2881, 2883, 2881, 2881, 2879, 2881, 2877, 2883, 2885, 2888]
ch0 : [2340, 2272, 2277, 2399, 2316, 2102, 2240, 2288, 2280, 2308]
ch1 : [3179, 3191, 3194, 3193, 3196, 3197, 3197, 3196, 3194, 3197]
ch2 : [1240, 1236, 1237, 1236, 1224, 1231, 1245, 1241, 1242, 1240]
ch3 : [2882, 2884, 2878, 2879, 2880, 2880, 2884, 2884, 2887, 2876]
ch0 : [2258, 2226, 2381, 2329, 2138, 2263, 2293, 2351, 2275, 2273]
ch1 : [3195, 3193, 3200, 3196, 3191, 3193, 3193, 3188, 3190, 3195]
ch2 : [1239, 1239, 1230, 1222, 1242, 1248, 1245, 1243, 1240, 1242]
ch3 : [2873, 2867, 2870, 2870, 2881, 2881, 2870, 2867, 2863, 2865]
ch0 : [2399, 2347, 2076, 2245, 2273, 2274, 2299, 2269, 2224, 2398]
ch1 : [3193, 3191, 3197, 3192, 3195, 3192, 3195, 3200, 3195, 3195]
ch2 : [1240, 1225, 1232, 1243, 1246, 1247, 1255, 1239, 1225, 1227]
ch3 : [2870, 2869, 2870, 2874, 2871, 2885, 2870, 2872, 2873, 2866]
ch0 : [2350, 2125, 2250, 2293, 2358, 2275, 2263, 2393, 2338, 2078]
ch1 : [3196, 3202, 3195, 3193, 3194, 3196, 3200, 3204, 3197, 3196]
ch2 : [1222, 1242, 1247, 1247, 1242, 1238, 1239, 1238, 1226, 1233]
ch3 : [2871, 2880, 2882, 2879, 2873, 2868, 2869, 2883, 2876, 2887]
ch0 : [2241, 2271, 2245, 2284, 2239, 2230, 2390, 2266, 2107, 2247]
ch1 : [3196, 3179, 3187, 3195, 3192, 3197, 3196, 3198, 3196, 3192]
ch2 : [1236, 1241, 1240, 1242, 1243, 1240, 1230, 1224, 1245, 1248]
ch3 : [2879, 2877, 2873, 2859, 2860, 2861, 2870, 2866, 2864, 2861]
ch0 : [2282, 2355, 2291, 2240, 2394, 2348, 2063, 2234, 2272, 2272]
ch1 : [3195, 3193, 3188, 3190, 3195, 3197, 3197, 3191, 3192, 3196]
ch2 : [1246, 1238, 1244, 1236, 1240, 1224, 1235, 1243, 1247, 1244]
ch3 : [2864, 2870, 2866, 2876, 2860, 2857, 2858, 2846, 2853, 2857]
ch0 : [2278, 2246, 2219, 2396, 2273, 2108, 2251, 2278, 2368, 2278]
ch1 : [3204, 3194, 3197, 3191, 3192, 3191, 3191, 3196, 3197, 3201]
ch2 : [1242, 1242, 1238, 1229, 1222, 1240, 1249, 1245, 1240, 1238]
ch3 : [2856, 2853, 2854, 2851, 2854, 2857, 2854, 2839, 2840, 2837]
ch0 : [2371, 2301, 2081, 2243, 2283, 2359, 2284, 2233, 2301, 2364]
ch1 : [3196, 3195, 3195, 3183, 3194, 3193, 3197, 3195, 3193, 3205]
ch2 : [1231, 1204, 1238, 1244, 1245, 1240, 1235, 1236, 1238, 1228]
ch3 : [2835, 2836, 2844, 2844, 2846, 2842, 2836, 2831, 2831, 2833]
ch0 : [2085, 2223, 2268, 2253, 2299, 2248, 2240, 2396, 2261, 2077]
ch1 : [3197, 3196, 3198, 3195, 3190, 3190, 3191, 3193, 3195, 3191]
ch2 : [1226, 1250, 1242, 1241, 1237, 1220, 1241, 1227, 1221, 1235]
ch3 : [2836, 2826, 2821, 2819, 2820, 2814, 2817, 2813, 2811, 2803]
ch0 : [2260, 2279, 2378, 2275, 2245, 2273, 2357, 2164, 2215, 2266]
ch1 : [3197, 3194, 3193, 3194, 3193, 3193, 3192, 3194, 3196, 3193]
ch2 : [1246, 1241, 1239, 1233, 1235, 1237, 1221, 1232, 1247, 1241]
ch3 : [2804, 2788, 2807, 2809, 2809, 2805, 2794, 2789, 2791, 2795]
ch0 : [2259, 2287, 2239, 2248, 2396, 2261, 2064, 2239, 2280, 2373]
ch1 : [3191, 3190, 3195, 3200, 3190, 3193, 3194, 3193, 3194, 3196]
ch2 : [1242, 1243, 1238, 1239, 1233, 1221, 1238, 1247, 1244, 1254]
ch3 : [2787, 2796, 2791, 2799, 2802, 2789, 2783, 2787, 2783, 2782]
ch0 : [2278, 2252, 2256, 2367, 2178, 2222, 2265, 2264, 2294, 2261]
ch1 : [3199, 3194, 3181, 3194, 3196, 3197, 3192, 3192, 3195, 3197]
ch2 : [1240, 1244, 1244, 1230, 1226, 1246, 1251, 1248, 1249, 1239]
ch3 : [2784, 2783, 2782, 2782, 2789, 2781, 2772, 2774, 2771, 2772]
ch0 : [2253, 2397, 2313, 2053, 2226, 2270, 2355, 2285, 2252, 2242]
ch1 : [3192, 3194, 3195, 3192, 3206, 3193, 3196, 3197, 3199, 3194]
ch2 : [1251, 1239, 1228, 1242, 1259, 1247, 1250, 1249, 1248, 1254]
ch3 : [2774, 2766, 2758, 2758, 2762, 2769, 2769, 2757, 2748, 2756]
ch0 : [2371, 2228, 2217, 2271, 2263, 2288, 2261, 2271, 2401, 2342]
ch1 : [3183, 3199, 3193, 3195, 3197, 3197, 3193, 3194, 3193, 3192]
ch2 : [1242, 1252, 1257, 1257, 1259, 1259, 1260, 1250, 1253, 1236]
ch3 : [2752, 2753, 2755, 2751, 2752, 2757, 2744, 2742, 2748, 2744]
ch0 : [2051, 2235, 2268, 2338, 2296, 2254, 2234, 2396, 2264, 2205]
ch1 : [3198, 3190, 3204, 3193, 3193, 3195, 3192, 3195, 3192, 3205]
ch2 : [1258, 1270, 1267, 1264, 1274, 1262, 1273, 1252, 1251, 1267]
ch3 : [2746, 2743, 2733, 2743, 2741, 2730, 2735, 2724, 2718, 2723]
ch0 : [2270, 2272, 2278, 2259, 2277, 2398, 2298, 2030, 2225, 2277]
ch1 : [3193, 3188, 3194, 3193, 3195, 3194, 3193, 3200, 3195, 3191]
ch2 : [1274, 1269, 1267, 1273, 1268, 1262, 1249, 1263, 1275, 1277]
ch3 : [2737, 2742, 2730, 2725, 2723, 2726, 2724, 2725, 2727, 2727]
ch0 : [2294, 2308, 2229, 2238, 2366, 2297, 2186, 2285, 2279, 2295]
ch1 : [3193, 3191, 3196, 3189, 3192, 3195, 3194, 3197, 3194, 3193]
ch2 : [1269, 1266, 1265, 1267, 1254, 1253, 1281, 1276, 1266, 1272]
ch3 : [2722, 2722, 2719, 2718, 2716, 2712, 2727, 2719, 2717, 2715]
ch0 : [2255, 2363, 2297, 2187, 2273, 2257, 2295, 2268, 2260, 2405]
ch1 : [3195, 3194, 3194, 3195, 3193, 3197, 3190, 3196, 3196, 3193]
ch2 : [1269, 1249, 1257, 1273, 1281, 1279, 1272, 1273, 1277, 1274]
ch3 : [2716, 2701, 2697, 2698, 2701, 2704, 2697, 2705, 2694, 2701]
ch0 : [2302, 1998, 2216, 2266, 2278, 2308, 2244, 2234, 2394, 2267]
ch1 : [3191, 3191, 3182, 3197, 3193, 3197, 3197, 3197, 3194, 3194]
ch2 : [1257, 1267, 1279, 1280, 1277, 1274, 1275, 1271, 1264, 1261]
ch3 : [2693, 2689, 2691, 2698, 2701, 2691, 2696, 2694, 2697, 2694]
ch0 : [2189, 2267, 2265, 2283, 2263, 2234, 2396, 2271, 1975, 2206]
ch1 : [3196, 3193, 3193, 3187, 3196, 3205, 3191, 3195, 3196, 3206]
ch2 : [1275, 1281, 1282, 1276, 1270, 1275, 1277, 1259, 1271, 1284]
ch3 : [2698, 2697, 2696, 2696, 2692, 2695, 2683, 2688, 2672, 2681]
ch0 : [2275, 2277, 2317, 2245, 2250, 2398, 2323, 2155, 2266, 2268]
ch1 : [3193, 3191, 3196, 3196, 3197, 3197, 3195, 3198, 3197, 3193]
ch2 : [1281, 1272, 1276, 1274, 1278, 1264, 1263, 1274, 1279, 1278]
ch3 : [2687, 2690, 2685, 2686, 2676, 2672, 2675, 2679, 2680, 2678]
ch0 : [2291, 2269, 2248, 2392, 2326, 1958, 2208, 2262, 2278, 2298]
ch1 : [3194, 3193, 3183, 3197, 3199, 3199, 3195, 3194, 3200, 3195]
ch2 : [1277, 1274, 1275, 1276, 1256, 1265, 1283, 1279, 1283, 1274]
ch3 : [2685, 2675, 2681, 2685, 2682, 2685, 2688, 2688, 2688, 2684]
ch0 : [2255, 2259, 2380, 2356, 2158, 2254, 2267, 2300, 2279, 2230]
ch1 : [3194, 3197, 3192, 3193, 3195, 3196, 3197, 3198, 3193, 3205]
ch2 : [1261, 1272, 1266, 1260, 1276, 1283, 1283, 1282, 1280, 1275]
ch3 : [2685, 2686, 2679, 2683, 2689, 2689, 2688, 2688, 2685, 2684]
ch0 : [2252, 2284, 1968, 2197, 2262, 2275, 2322, 2252, 2250, 2399]
ch1 : [3195, 3194, 3199, 3195, 3200, 3192, 3194, 3205, 3194, 3195]
ch2 : [1279, 1263, 1286, 1289, 1288, 1286, 1266, 1283, 1286, 1275]
ch3 : [2698, 2685, 2681, 2687, 2685, 2684, 2685, 2680, 2685, 2681]
ch0 : [2340, 2163, 2264, 2265, 2303, 2275, 2214, 2218, 2310, 1963]
ch1 : [3194, 3195, 3194, 3196, 3196, 3194, 3197, 3191, 3193, 3196]
ch2 : [1269, 1285, 1286, 1286, 1290, 1280, 1284, 1282, 1271, 1273]
