device found = /dev/cu.usbmodem14433
ch0 : [2699, 2696, 2707, 2710, 2475, 2677, 2696, 2697, 2704, 2704]
ch1 : [3191, 3192, 3189, 3192, 3192, 3189, 3189, 3192, 3189, 3192]
ch2 : [1053, 1051, 1043, 1027, 1046, 1065, 1064, 1060, 1049, 1054]
ch3 : [2955, 2955, 2953, 2956, 2953, 2957, 2956, 2960, 2954, 2956]
ch0 : [2677, 2714, 2709, 2640, 2699, 2695, 2705, 2704, 2702, 2711]
ch1 : [3189, 3191, 3197, 3183, 3190, 3189, 3187, 3189, 3190, 3188]
ch2 : [1056, 1039, 1033, 1060, 1066, 1063, 1064, 1060, 1062, 1053]
ch3 : [2957, 2957, 2954, 2960, 2957, 2956, 2958, 2952, 2955, 2952]
ch0 : [2706, 2452, 2668, 2702, 2704, 2705, 2692, 2681, 2718, 2710]
ch1 : [3189, 3195, 3190, 3191, 3190, 3189, 3191, 3187, 3191, 3193]
ch2 : [1036, 1052, 1065, 1065, 1062, 1057, 1063, 1061, 1041, 1034]
ch3 : [2953, 2959, 2957, 2958, 2958, 2953, 2954, 2953, 2952, 2944]
ch0 : [2624, 2703, 2700, 2707, 2702, 2702, 2704, 2710, 2411, 2662]
ch1 : [3191, 3192, 3189, 3190, 3187, 3193, 3190, 3191, 3190, 3189]
ch2 : [1058, 1064, 1053, 1051, 1053, 1055, 1055, 1027, 1034, 1051]
ch3 : [2955, 2956, 2956, 2956, 2956, 2956, 2957, 2951, 2954, 2956]
ch0 : [2700, 2703, 2708, 2692, 2692, 2700, 2712, 2612, 2687, 2698]
ch1 : [3191, 3190, 3188, 3193, 3189, 3191, 3191, 3197, 3189, 3187]
ch2 : [1049, 1046, 1039, 1037, 1036, 1013, 1015, 1030, 1038, 1034]
ch3 : [2951, 2956, 2954, 2955, 2962, 2952, 2955, 2957, 2957, 2971]
ch0 : [2707, 2707, 2679, 2707, 2711, 2418, 2650, 2699, 2699, 2702]
ch1 : [3193, 3190, 3186, 3195, 3190, 3191, 3190, 3195, 3192, 3190]
ch2 : [1032, 1006, 1019, 1016, 985, 997, 1020, 1024, 1015, 1007]
ch3 : [2953, 2952, 2954, 2955, 2952, 2955, 2957, 2960, 2957, 2955]
ch0 : [2700, 2699, 2710, 2706, 2604, 2697, 2703, 2699, 2703, 2682]
ch1 : [3190, 3192, 3189, 3183, 3193, 3190, 3200, 3190, 3186, 3189]
ch2 : [1001, 995, 987, 974, 994, 1003, 1000, 1009, 985, 986]
ch3 : [2953, 2953, 2954, 2957, 2955, 2960, 2956, 2958, 2953, 2956]
ch0 : [2694, 2711, 2403, 2640, 2704, 2703, 2709, 2700, 2700, 2713]
ch1 : [3190, 3192, 3204, 3191, 3191, 3194, 3177, 3194, 3191, 3180]
ch2 : [991, 962, 960, 980, 979, 972, 965, 964, 959, 945]
ch3 : [2959, 2958, 2955, 2960, 2957, 2956, 2947, 2954, 2955, 2954]
ch0 : [2711, 2587, 2698, 2703, 2703, 2699, 2677, 2662, 2719, 2425]
ch1 : [3189, 3196, 3195, 3191, 3187, 3190, 3189, 3191, 3191, 3191]
ch2 : [934, 948, 952, 942, 939, 930, 933, 928, 909, 901]
ch3 : [2950, 2956, 2958, 2957, 2955, 2956, 2955, 2955, 2951, 2953]
ch0 : [2625, 2701, 2691, 2706, 2702, 2687, 2716, 2715, 2567, 2696]
ch1 : [3190, 3188, 3194, 3187, 3195, 3190, 3186, 3190, 3187, 3190]
ch2 : [916, 914, 911, 900, 898, 899, 882, 873, 882, 892]
ch3 : [2960, 2959, 2957, 2957, 2952, 2943, 2953, 2954, 2948, 2957]
ch0 : [2703, 2694, 2708, 2724, 2709, 2560, 2705, 2700, 2693, 2705]
ch1 : [3187, 3191, 3188, 3197, 3191, 3192, 3190, 3191, 3196, 3190]
ch2 : [847, 836, 830, 822, 808, 815, 816, 821, 815, 804]
ch3 : [2954, 2954, 2955, 2958, 2954, 2958, 2959, 2961, 2970, 2961]
ch0 : [2690, 2655, 2709, 2564, 2604, 2697, 2699, 2703, 2697, 2698]
ch1 : [3192, 3190, 3204, 3190, 3189, 3195, 3192, 3193, 3196, 3186]
ch2 : [799, 800, 779, 768, 800, 794, 788, 779, 782, 783]
ch3 : [2954, 2957, 2951, 2956, 2960, 2959, 2960, 2958, 2954, 2956]
ch0 : [2720, 2699, 2544, 2696, 2696, 2701, 2699, 2693, 2656, 2709]
ch1 : [3194, 3192, 3189, 3192, 3189, 3193, 3189, 3193, 3193, 3191]
ch2 : [762, 749, 764, 771, 767, 767, 757, 753, 755, 737]
ch3 : [2959, 2956, 2957, 2959, 2957, 2960, 2956, 2956, 2957, 2954]
ch0 : [2667, 2601, 2687, 2702, 2705, 2694, 2697, 2710, 2704, 2533]
ch1 : [3190, 3192, 3194, 3193, 3192, 3191, 3194, 3189, 3178, 3194]
ch2 : [730, 744, 759, 758, 753, 745, 747, 741, 729, 742]
ch3 : [2957, 2958, 2962, 2957, 2957, 2957, 2960, 2956, 2957, 2960]
ch0 : [2679, 2697, 2699, 2694, 2692, 2659, 2710, 2705, 2578, 2697]
ch1 : [3187, 3192, 3191, 3191, 3194, 3193, 3196, 3192, 3197, 3195]
ch2 : [754, 753, 753, 748, 750, 748, 735, 730, 760, 766]
ch3 : [2959, 2958, 2955, 2959, 2958, 2959, 2960, 2955, 2962, 2961]
ch0 : [2697, 2706, 2704, 2703, 2711, 2706, 2533, 2684, 2702, 2701]
ch1 : [3191, 3192, 3190, 3196, 3193, 3193, 3192, 3192, 3193, 3190]
ch2 : [766, 758, 759, 762, 760, 749, 758, 772, 771, 777]
ch3 : [2962, 2953, 2957, 2960, 2960, 2956, 2958, 2960, 2951, 2955]
ch0 : [2703, 2688, 2661, 2713, 2706, 2576, 2701, 2694, 2703, 2698]
ch1 : [3192, 3190, 3193, 3196, 3193, 3196, 3192, 3192, 3190, 3192]
ch2 : [776, 783, 782, 768, 766, 796, 787, 797, 804, 805]
ch3 : [2959, 2959, 2958, 2960, 2955, 2958, 2959, 2958, 2957, 2957]
ch0 : [2700, 2714, 2717, 2501, 2667, 2699, 2701, 2713, 2699, 2677]
ch1 : [3191, 3191, 3177, 3195, 3188, 3183, 3191, 3193, 3194, 3189]
ch2 : [799, 804, 792, 802, 827, 826, 831, 826, 827, 830]
ch3 : [2958, 2957, 2957, 2957, 2964, 2958, 2958, 2959, 2960, 2956]
ch0 : [2714, 2716, 2555, 2693, 2700, 2706, 2705, 2695, 2711, 2714]
ch1 : [3191, 3190, 3190, 3192, 3193, 3195, 3192, 3187, 3199, 3193]
ch2 : [816, 810, 837, 850, 847, 846, 827, 842, 852, 833]
ch3 : [2957, 2954, 2951, 2964, 2959, 2956, 2954, 2956, 2955, 2955]
ch0 : [2493, 2681, 2710, 2700, 2709, 2700, 2675, 2710, 2712, 2566]
ch1 : [3192, 3193, 3193, 3194, 3185, 3195, 3189, 3192, 3193, 3193]
ch2 : [840, 859, 863, 863, 860, 857, 867, 850, 841, 874]
ch3 : [2964, 2960, 2957, 2958, 2955, 2958, 2957, 2957, 2957, 2955]
ch0 : [2699, 2703, 2698, 2688, 2718, 2730, 2540, 2687, 2697, 2706]
ch1 : [3187, 3187, 3193, 3186, 3191, 3194, 3187, 3189, 3193, 3191]
ch2 : [889, 887, 886, 887, 875, 861, 890, 901, 896, 893]
ch3 : [2956, 2955, 2959, 2955, 2954, 2960, 2955, 2965, 2961, 2960]
ch0 : [2703, 2694, 2704, 2712, 2521, 2659, 2698, 2699, 2703, 2688]
ch1 : [3175, 3191, 3190, 3191, 3192, 3191, 3193, 3192, 3193, 3192]
ch2 : [887, 895, 897, 874, 876, 900, 901, 899, 899, 891]
ch3 : [2956, 2954, 2960, 2957, 2959, 2961, 2955, 2961, 2956, 2955]
ch0 : [2715, 2620, 2647, 2697, 2699, 2701, 2695, 2697, 2716, 2714]
ch1 : [3190, 3192, 3191, 3191, 3191, 3190, 3189, 3190, 3191, 3189]
ch2 : [885, 886, 907, 915, 912, 907, 919, 910, 893, 891]
ch3 : [2958, 2955, 2960, 2958, 2960, 2958, 2954, 2958, 2959, 2955]
ch0 : [2489, 2684, 2695, 2699, 2706, 2698, 2691, 2713, 2661, 2644]
ch1 : [3193, 3190, 3192, 3187, 3191, 3190, 3183, 3179, 3190, 3191]
ch2 : [908, 923, 923, 914, 910, 910, 914, 897, 899, 922]
ch3 : [2960, 2965, 2961, 2959, 2955, 2957, 2958, 2959, 2959, 2961]
ch0 : [2702, 2696, 2707, 2704, 2699, 2713, 2713, 2498, 2675, 2695]
ch1 : [3189, 3193, 3191, 3192, 3188, 3190, 3193, 3193, 3188, 3188]
ch2 : [925, 918, 923, 915, 914, 909, 897, 914, 929, 932]
ch3 : [2958, 2964, 2959, 2959, 2958, 2973, 2959, 2958, 2959, 2961]
ch0 : [2697, 2705, 2691, 2688, 2712, 2698, 2635, 2700, 2704, 2702]
ch1 : [3189, 3183, 3189, 3194, 3191, 3191, 3185, 3194, 3193, 3191]
ch2 : [921, 921, 921, 925, 906, 911, 927, 937, 925, 932]
ch3 : [2966, 2955, 2956, 2955, 2968, 2956, 2961, 2961, 2962, 2958]
ch0 : [2702, 2699, 2711, 2700, 2466, 2674, 2703, 2695, 2702, 2675]
ch1 : [3180, 3190, 3195, 3190, 3193, 3193, 3191, 3192, 3190, 3191]
ch2 : [929, 936, 929, 910, 927, 942, 941, 935, 929, 935]
ch3 : [2956, 2951, 2957, 2959, 2958, 2960, 2962, 2959, 2964, 2959]
ch0 : [2687, 2719, 2706, 2637, 2705, 2700, 2698, 2695, 2702, 2711]
ch1 : [3192, 3191, 3191, 3190, 3191, 3191, 3190, 3193, 3200, 3193]
ch2 : [930, 912, 903, 936, 944, 949, 928, 926, 932, 925]
ch3 : [2960, 2961, 2962, 2967, 2964, 2969, 2960, 2958, 2951, 2960]
ch0 : [2713, 2454, 2658, 2700, 2698, 2703, 2710, 2682, 2716, 2707]
ch1 : [3189, 3193, 3192, 3187, 3187, 3196, 3187, 3193, 3183, 3191]
ch2 : [901, 925, 946, 945, 932, 930, 928, 935, 932, 918]
ch3 : [2953, 2960, 2965, 2963, 2954, 2964, 2958, 2964, 2959, 2963]
ch0 : [2611, 2693, 2701, 2689, 2707, 2704, 2717, 2711, 2422, 2657]
ch1 : [3191, 3191, 3192, 3197, 3190, 3196, 3191, 3190, 3194, 3193]
ch2 : [948, 938, 947, 941, 939, 946, 932, 903, 924, 948]
ch3 : [2963, 2964, 2961, 2958, 2954, 2964, 2959, 2961, 2963, 2963]
ch0 : [2702, 2701, 2708, 2700, 2699, 2708, 2688, 2611, 2698, 2704]
ch1 : [3192, 3189, 3193, 3193, 3192, 3193, 3196, 3191, 3192, 3190]
ch2 : [942, 937, 933, 936, 939, 920, 914, 930, 938, 945]
ch3 : [2968, 2965, 2959, 2959, 2960, 2955, 2964, 2962, 2962, 2963]
ch0 : [2704, 2687, 2720, 2713, 2601, 2698, 2705, 2706, 2703, 2675]
ch1 : [3191, 3188, 3191, 3190, 3191, 3190, 3190, 3189, 3191, 3189]
ch2 : [926, 925, 909, 898, 916, 915, 912, 907, 902, 894]
ch3 : [2963, 2958, 2962, 2964, 2964, 2972, 2962, 2959, 2963, 2967]
ch0 : [2701, 2717, 2410, 2643, 2694, 2695, 2709, 2695, 2676, 2711]
ch1 : [3190, 3191, 3194, 3192, 3194, 3193, 3192, 3190, 3187, 3183]
ch2 : [891, 864, 865, 885, 879, 878, 866, 873, 856, 843]
ch3 : [2965, 2961, 2959, 2965, 2966, 2964, 2954, 2960, 2959, 2964]
ch0 : [2710, 2590, 2696, 2703, 2701, 2705, 2690, 2663, 2706, 2403]
ch1 : [3191, 3195, 3194, 3191, 3192, 3194, 3191, 3190, 3192, 3192]
ch2 : [841, 846, 853, 840, 842, 840, 832, 821, 792, 796]
ch3 : [2969, 2966, 2969, 2966, 2967, 2962, 2970, 2967, 2968, 2961]
ch0 : [2631, 2695, 2700, 2703, 2680, 2699, 2710, 2708, 2574, 2692]
ch1 : [3190, 3191, 3192, 3193, 3190, 3194, 3183, 3191, 3190, 3187]
ch2 : [824, 818, 808, 790, 806, 787, 762, 750, 770, 766]
ch3 : [2971, 2973, 2970, 2963, 2967, 2965, 2957, 2965, 2972, 2967]
ch0 : [2695, 2700, 2696, 2685, 2642, 2692, 2460, 2613, 2698, 2695]
ch1 : [3189, 3195, 3191, 3191, 3189, 3191, 3194, 3191, 3191, 3177]
ch2 : [762, 763, 762, 743, 741, 717, 716, 728, 721, 712]
ch3 : [2967, 2973, 2971, 2966, 2970, 2967, 2968, 2970, 2973, 2974]
ch0 : [2705, 2684, 2700, 2710, 2707, 2556, 2698, 2696, 2699, 2699]
ch1 : [3192, 3196, 3193, 3192, 3194, 3193, 3190, 3190, 3192, 3191]
ch2 : [705, 700, 698, 680, 671, 681, 687, 672, 672, 659]
ch3 : [2968, 2969, 2969, 2970, 2976, 2974, 2978, 2972, 2972, 2972]
ch0 : [2677, 2625, 2701, 2556, 2605, 2683, 2698, 2701, 2674, 2701]
ch1 : [3193, 3191, 3188, 3191, 3191, 3190, 3194, 3183, 3193, 3192]
ch2 : [659, 645, 623, 615, 622, 631, 620, 612, 603, 594]
ch3 : [2972, 2974, 2970, 2964, 2974, 2974, 2971, 2967, 2970, 2971]
ch0 : [2697, 2706, 2538, 2691, 2681, 2699, 2698, 2687, 2642, 2709]
ch1 : [3191, 3188, 3193, 3196, 3193, 3191, 3202, 3191, 3192, 3194]
ch2 : [583, 564, 569, 583, 569, 562, 552, 551, 554, 533]
ch3 : [2973, 2969, 2977, 2977, 2976, 2974, 2977, 2973, 2980, 2973]
ch0 : [2585, 2591, 2691, 2693, 2699, 2708, 2692, 2709, 2703, 2521]
ch1 : [3192, 3192, 3191, 3178, 3191, 3190, 3191, 3194, 3196, 3196]
ch2 : [528, 545, 540, 536, 521, 524, 520, 509, 497, 505]
ch3 : [2975, 2977, 2979, 2984, 2975, 2974, 2977, 2977, 2977, 2978]
ch0 : [2669, 2694, 2694, 2695, 2689, 2637, 2705, 2676, 2573, 2685]
ch1 : [3191, 3189, 3194, 3192, 3188, 3191, 3193, 3195, 3193, 3191]
ch2 : [509, 504, 497, 490, 485, 477, 455, 453, 482, 468]
ch3 : [2977, 2976, 2976, 2973, 2976, 2974, 2973, 2975, 2978, 2974]
ch0 : [2692, 2695, 2685, 2692, 2702, 2706, 2518, 2675, 2683, 2696]
ch1 : [3191, 3193, 3186, 3196, 3193, 3190, 3191, 3187, 3190, 3195]
ch2 : [458, 450, 444, 444, 436, 419, 421, 449, 434, 431]
ch3 : [2979, 2976, 2971, 2976, 2971, 2974, 2981, 2975, 2978, 2975]
ch0 : [2693, 2678, 2661, 2704, 2689, 2559, 2687, 2687, 2696, 2691]
ch1 : [3192, 3190, 3191, 3192, 3193, 3192, 3190, 3193, 3190, 3194]
ch2 : [424, 418, 414, 403, 391, 398, 441, 353, 358, 378]
ch3 : [2976, 2976, 2979, 2976, 2970, 2978, 2976, 2979, 2970, 2976]
ch0 : [2697, 2705, 2702, 2499, 2669, 2682, 2692, 2696, 2682, 2651]
ch1 : [3191, 3192, 3191, 3196, 3193, 3188, 3195, 3194, 3194, 3192]
ch2 : [401, 465, 282, 284, 292, 314, 328, 346, 371, 458]
ch3 : [2974, 2973, 2972, 2980, 2981, 2978, 2976, 2978, 2978, 2975]
ch0 : [2702, 2665, 2545, 2688, 2689, 2695, 2686, 2693, 2696, 2695]
ch1 : [3198, 3192, 3191, 3193, 3200, 3190, 3179, 3198, 3191, 3191]
ch2 : [197, 220, 231, 238, 250, 260, 266, 279, 287, 293]
ch3 : [2978, 2980, 2977, 2984, 2975, 2981, 2974, 2977, 2981, 2975]
ch0 : [2449, 2660, 2691, 2689, 2690, 2680, 2651, 2698, 2702, 2548]
ch1 : [3189, 3191, 3190, 3191, 3191, 3199, 3186, 3192, 3194, 3190]
ch2 : [304, 294, 316, 318, 334, 357, 434, 177, 204, 220]
ch3 : [2982, 2981, 2978, 2977, 2977, 2976, 2978, 2977, 2976, 2981]
ch0 : [2679, 2692, 2693, 2695, 2692, 2701, 2702, 2487, 2673, 2694]
ch1 : [3189, 3194, 3192, 3183, 3193, 3192, 3188, 3200, 3193, 3196]
ch2 : [231, 239, 246, 249, 263, 269, 264, 271, 277, 281]
ch3 : [2980, 2978, 2978, 2974, 2976, 2978, 2979, 2980, 2980, 2980]
ch0 : [2685, 2695, 2696, 2677, 2709, 2706, 2545, 2695, 2681, 2702]
ch1 : [3189, 3192, 3193, 3193, 3191, 3195, 3192, 3191, 3194, 3193]
ch2 : [285, 291, 296, 296, 300, 302, 306, 308, 314, 320]
ch3 : [2978, 2980, 2976, 2978, 2971, 2976, 2978, 2979, 2985, 2977]
ch0 : [2699, 2687, 2703, 2711, 2518, 2659, 2694, 2687, 2705, 2685]
ch1 : [3191, 3189, 3191, 3187, 3195, 3191, 3191, 3198, 3191, 3192]
ch2 : [327, 331, 339, 359, 426, 155, 203, 214, 226, 236]
ch3 : [2980, 2976, 2976, 2973, 2978, 2981, 2981, 2974, 2971, 2976]
ch0 : [2688, 2704, 2713, 2521, 2681, 2708, 2700, 2700, 2695, 2702]
ch1 : [3189, 3189, 3183, 3185, 3192, 3196, 3192, 3190, 3193, 3192]
ch2 : [242, 249, 252, 260, 265, 270, 271, 277, 275, 282]
ch3 : [2978, 2972, 2977, 2977, 2984, 2980, 2981, 2976, 2975, 2974]
ch0 : [2709, 2571, 2662, 2700, 2697, 2700, 2687, 2692, 2709, 2709]
ch1 : [3194, 3192, 3190, 3195, 3195, 3190, 3199, 3196, 3193, 3195]
ch2 : [287, 293, 289, 292, 295, 299, 300, 303, 303, 309]
ch3 : [2980, 2977, 2982, 2981, 2978, 2977, 2974, 2980, 2976, 2975]
ch0 : [2491, 2678, 2694, 2700, 2701, 2697, 2687, 2707, 2650, 2655]
ch1 : [3203, 3190, 3191, 3191, 3190, 3191, 3185, 3183, 3194, 3193]
ch2 : [316, 316, 321, 328, 314, 335, 346, 370, 497, 177]
ch3 : [2977, 2983, 2983, 2979, 2977, 2972, 2977, 2984, 2979, 2984]
ch0 : [2692, 2696, 2700, 2693, 2691, 2709, 2682, 2480, 2651, 2695]
ch1 : [3191, 3194, 3193, 3193, 3191, 3196, 3191, 3191, 3193, 3194]
ch2 : [203, 217, 229, 235, 240, 248, 254, 261, 257, 265]
ch3 : [2979, 2980, 2979, 2979, 2979, 2983, 2979, 2979, 2982, 2987]
ch0 : [2699, 2704, 2700, 2666, 2712, 2675, 2624, 2696, 2698, 2694]
ch1 : [3192, 3191, 3194, 3190, 3200, 3191, 3183, 3191, 3196, 3196]
ch2 : [271, 269, 282, 279, 283, 286, 290, 294, 295, 298]
ch3 : [2984, 2978, 2979, 2982, 2979, 2979, 2984, 2985, 2975, 2982]
ch0 : [2693, 2696, 2701, 2707, 2458, 2656, 2696, 2695, 2701, 2687]
ch1 : [3192, 3191, 3197, 3194, 3196, 3191, 3190, 3197, 3195, 3191]
ch2 : [300, 307, 311, 318, 322, 332, 346, 383, 240, 189]
ch3 : [2983, 2982, 2981, 2980, 2984, 2983, 2983, 2981, 2980, 2977]
ch0 : [2689, 2709, 2703, 2650, 2696, 2697, 2698, 2699, 2696, 2712]
ch1 : [3192, 3191, 3193, 3192, 3187, 3191, 3187, 3194, 3193, 3193]
ch2 : [212, 233, 238, 251, 260, 276, 294, 320, 345, 398]
ch3 : [2995, 2981, 2979, 2983, 2982, 2982, 2970, 2980, 2979, 2972]
ch0 : [2712, 2440, 2654, 2695, 2695, 2700, 2682, 2688, 2712, 2693]
ch1 : [3188, 3194, 3191, 3195, 3192, 3191, 3191, 3194, 3193, 3195]
ch2 : [192, 214, 243, 288, 339, 416, 229, 267, 307, 364]
ch3 : [2975, 2976, 2980, 2975, 2980, 2976, 2977, 2977, 2976, 2979]
ch0 : [2614, 2690, 2696, 2696, 2696, 2687, 2706, 2708, 2421, 2643]
ch1 : [3191, 3187, 3192, 3190, 3203, 3192, 3193, 3196, 3193, 3194]
ch2 : [477, 298, 419, 341, 454, 391, 411, 475, 466, 493]
ch3 : [2967, 2976, 2974, 2974, 2974, 2975, 2973, 2973, 2971, 2974]
ch0 : [2691, 2696, 2698, 2689, 2679, 2706, 2704, 2599, 2690, 2692]
ch1 : [3191, 3191, 3196, 3196, 3192, 3187, 3199, 3188, 3197, 3196]
ch2 : [486, 487, 488, 489, 497, 475, 480, 505, 507, 511]
ch3 : [2967, 2975, 2966, 2974, 2967, 2968, 2967, 2978, 2968, 2970]
ch0 : [2678, 2689, 2705, 2700, 2591, 2687, 2691, 2694, 2695, 2680]
ch1 : [3189, 3190, 3189, 3193, 3187, 3191, 3194, 3191, 3196, 3189]
ch2 : [536, 525, 516, 510, 528, 536, 539, 533, 533, 533]
ch3 : [2963, 2960, 2966, 2966, 2971, 2969, 2967, 2965, 2964, 2964]
ch0 : [2695, 2694, 2387, 2637, 2692, 2696, 2699, 2687, 2689, 2703]
ch1 : [3194, 3190, 3204, 3187, 3204, 3193, 3190, 3193, 3192, 3191]
ch2 : [537, 518, 527, 544, 550, 544, 544, 531, 544, 529]
ch3 : [2967, 2966, 2965, 2968, 2967, 2968, 2961, 2964, 2963, 2964]
ch0 : [2705, 2583, 2689, 2695, 2693, 2698, 2671, 2683, 2689, 2395]
ch1 : [3189, 3187, 3190, 3192, 3196, 3194, 3190, 3192, 3194, 3195]
ch2 : [529, 545, 555, 552, 555, 543, 552, 552, 536, 545]
ch3 : [2963, 2971, 2966, 2968, 2966, 2964, 2964, 2964, 2963, 2965]
ch0 : [2630, 2695, 2695, 2701, 2691, 2691, 2705, 2699, 2584, 2697]
ch1 : [3192, 3194, 3192, 3190, 3191, 3192, 3192, 3190, 3197, 3190]
ch2 : [561, 564, 558, 555, 559, 563, 547, 545, 577, 576]
ch3 : [2968, 2970, 2963, 2975, 2966, 2963, 2966, 2966, 2969, 2968]
ch0 : [2697, 2698, 2703, 2683, 2652, 2709, 2411, 2623, 2686, 2684]
ch1 : [3192, 3192, 3181, 3192, 3200, 3191, 3192, 3200, 3193, 3195]
ch2 : [565, 568, 573, 568, 571, 554, 555, 567, 584, 582]
ch3 : [2961, 2968, 2967, 2965, 2969, 2966, 2962, 2969, 2973, 2976]
ch0 : [2702, 2691, 2699, 2714, 2709, 2555, 2691, 2700, 2697, 2700]
ch1 : [3194, 3198, 3193, 3187, 3191, 3192, 3194, 3191, 3191, 3191]
ch2 : [582, 580, 580, 571, 566, 586, 594, 594, 597, 596]
ch3 : [2966, 2956, 2967, 2967, 2967, 2971, 2972, 2969, 2969, 2969]
ch0 : [2682, 2650, 2717, 2459, 2622, 2698, 2699, 2702, 2702, 2694]
ch1 : [3190, 3191, 3191, 3193, 3191, 3193, 3190, 3190, 3195, 3190]
ch2 : [594, 600, 578, 581, 607, 612, 612, 604, 603, 609]
ch3 : [2968, 2968, 2966, 2966, 2970, 2972, 2967, 2969, 2964, 2962]
ch0 : [2714, 2710, 2562, 2692, 2703, 2701, 2705, 2695, 2648, 2709]
ch1 : [3198, 3190, 3193, 3190, 3191, 3186, 3193, 3191, 3191, 3194]
ch2 : [597, 592, 612, 611, 620, 623, 618, 624, 624, 605]
ch3 : [2966, 2972, 2969, 2967, 2962, 2966, 2965, 2968, 2969, 2965]
ch0 : [2562, 2606, 2705, 2697, 2718, 2695, 2699, 2710, 2712, 2539]
ch1 : [3191, 3189, 3196, 3195, 3192, 3190, 3193, 3193, 3193, 3189]
ch2 : [606, 634, 637, 637, 628, 642, 617, 624, 615, 621]
ch3 : [2965, 2966, 2968, 2970, 2962, 2963, 2964, 2966, 2968, 2966]
ch0 : [2694, 2696, 2697, 2687, 2698, 2659, 2710, 2632, 2598, 2697]
ch1 : [3192, 3192, 3191, 3188, 3194, 3190, 3193, 3189, 3196, 3193]
ch2 : [642, 642, 642, 621, 639, 637, 617, 615, 643, 649]
ch3 : [2972, 2968, 2966, 2959, 2963, 2964, 2965, 2964, 2968, 2968]
ch0 : [2700, 2710, 2695, 2700, 2706, 2709, 2518, 2687, 2679, 2700]
ch1 : [3188, 3192, 3193, 3192, 3193, 3193, 3190, 3193, 3196, 3205]
ch2 : [631, 636, 645, 638, 630, 614, 636, 646, 647, 643]
ch3 : [2962, 2965, 2964, 2963, 2968, 2963, 2967, 2968, 2971, 2968]
ch0 : [2702, 2698, 2652, 2712, 2666, 2595, 2694, 2697, 2708, 2691]
ch1 : [3191, 3202, 3185, 3193, 3196, 3192, 3191, 3195, 3191, 3194]
ch2 : [642, 641, 638, 624, 623, 646, 652, 650, 642, 643]
ch3 : [2969, 2966, 2959, 2955, 2972, 2970, 2971, 2970, 2968, 2965]
ch0 : [2698, 2709, 2713, 2498, 2677, 2700, 2696, 2698, 2687, 2661]
ch1 : [3191, 3191, 3191, 3193, 3196, 3190, 3193, 3196, 3194, 3193]
ch2 : [645, 648, 636, 643, 662, 648, 661, 657, 659, 659]
ch3 : [2968, 2968, 2967, 2965, 2970, 2967, 2967, 2956, 2967, 2972]
ch0 : [2711, 2706, 2580, 2688, 2700, 2701, 2702, 2687, 2708, 2714]
ch1 : [3192, 3192, 3191, 3187, 3195, 3192, 3194, 3189, 3190, 3191]
ch2 : [645, 634, 667, 667, 669, 661, 662, 662, 666, 647]
ch3 : [2968, 2959, 2968, 2975, 2973, 2965, 2966, 2965, 2966, 2971]
ch0 : [2506, 2674, 2701, 2695, 2700, 2694, 2650, 2708, 2706, 2552]
ch1 : [3193, 3187, 3191, 3193, 3192, 3193, 3190, 3184, 3193, 3187]
ch2 : [657, 674, 671, 667, 669, 669, 671, 653, 650, 672]
ch3 : [2969, 2973, 2969, 2963, 2967, 2968, 2960, 2961, 2968, 2971]
ch0 : [2686, 2694, 2707, 2692, 2698, 2706, 2712, 2479, 2679, 2699]
ch1 : [3194, 3194, 3194, 3193, 3190, 3202, 3197, 3195, 3196, 3191]
ch2 : [682, 679, 674, 672, 675, 670, 661, 666, 683, 682]
ch3 : [2968, 2968, 2968, 2963, 2966, 2964, 2967, 2966, 2950, 2963]
ch0 : [2701, 2705, 2703, 2660, 2711, 2707, 2538, 2687, 2692, 2700]
ch1 : [3194, 3192, 3194, 3187, 3191, 3198, 3195, 3187, 3200, 3190]
ch2 : [684, 680, 680, 682, 669, 664, 685, 696, 680, 685]
ch3 : [2966, 2965, 2967, 2967, 2963, 2962, 2965, 2968, 2966, 2966]
ch0 : [2700, 2684, 2700, 2711, 2488, 2661, 2698, 2697, 2700, 2686]
ch1 : [3194, 3191, 3196, 3190, 3194, 3186, 3195, 3191, 3193, 3191]
ch2 : [684, 687, 690, 669, 675, 688, 695, 691, 676, 698]
ch3 : [2967, 2967, 2966, 2966, 2976, 2971, 2965, 2962, 2967, 2968]
ch0 : [2682, 2708, 2708, 2527, 2692, 2691, 2702, 2702, 2694, 2702]
ch1 : [3190, 3192, 3192, 3186, 3195, 3198, 3187, 3191, 3191, 3193]
ch2 : [691, 680, 669, 686, 699, 699, 690, 702, 702, 696]
ch3 : [2968, 2967, 2965, 2969, 2967, 2967, 2966, 2962, 2963, 2968]
ch0 : [2703, 2542, 2647, 2697, 2699, 2698, 2686, 2687, 2707, 2706]
ch1 : [3192, 3191, 3191, 3191, 3196, 3183, 3193, 3188, 3192, 3194]
ch2 : [683, 695, 709, 705, 719, 716, 707, 712, 697, 699]
ch3 : [2967, 2970, 2968, 2965, 2965, 2967, 2963, 2967, 2967, 2952]
ch0 : [2482, 2619, 2696, 2701, 2690, 2696, 2700, 2714, 2585, 2623]
ch1 : [3193, 3193, 3196, 3191, 3191, 3190, 3192, 3192, 3192, 3186]
ch2 : [725, 741, 742, 738, 726, 736, 729, 719, 727, 743]
ch3 : [2965, 2970, 2968, 2963, 2960, 2962, 2965, 2951, 2971, 2966]
ch0 : [2698, 2699, 2688, 2687, 2704, 2619, 2615, 2700, 2693, 2695]
ch1 : [3193, 3194, 3191, 3188, 3191, 3193, 3193, 3195, 3189, 3193]
ch2 : [732, 726, 725, 730, 716, 702, 721, 724, 716, 716]
ch3 : [2965, 2964, 2963, 2965, 2967, 2969, 2969, 2968, 2969, 2969]
ch0 : [2693, 2692, 2703, 2706, 2470, 2663, 2692, 2701, 2697, 2689]
ch1 : [3193, 3198, 3193, 3190, 3196, 3192, 3191, 3190, 3192, 3194]
ch2 : [715, 716, 708, 687, 703, 720, 709, 709, 702, 706]
ch3 : [2970, 2970, 2969, 2959, 2972, 2961, 2973, 2971, 2968, 2967]
ch0 : [2671, 2705, 2704, 2622, 2696, 2688, 2698, 2698, 2693, 2707]
ch1 : [3191, 3193, 3191, 3193, 3192, 3191, 3179, 3194, 3187, 3194]
ch2 : [708, 701, 692, 709, 709, 703, 705, 710, 706, 704]
ch3 : [2972, 2966, 2972, 2971, 2972, 2965, 2966, 2963, 2969, 2976]
ch0 : [2685, 2455, 2663, 2693, 2695, 2700, 2680, 2684, 2699, 2704]
ch1 : [3190, 3178, 3189, 3190, 3193, 3193, 3190, 3193, 3196, 3195]
ch2 : [688, 703, 717, 720, 713, 708, 711, 714, 701, 697]
ch3 : [2964, 2966, 2959, 2970, 2972, 2964, 2965, 2963, 2967, 2966]
ch0 : [2626, 2685, 2694, 2696, 2696, 2693, 2704, 2697, 2430, 2650]
ch1 : [3194, 3189, 3191, 3193, 3195, 3191, 3191, 3191, 3189, 3194]
ch2 : [725, 706, 721, 724, 713, 718, 711, 701, 712, 731]
ch3 : [2969, 2972, 2965, 2968, 2963, 2966, 2968, 2966, 2969, 2970]
ch0 : [2691, 2695, 2695, 2683, 2678, 2704, 2709, 2608, 2711, 2694]
ch1 : [3191, 3191, 3190, 3193, 3189, 3192, 3193, 3193, 3190, 3192]
ch2 : [735, 728, 720, 715, 727, 704, 705, 713, 734, 730]
ch3 : [2970, 2971, 2960, 2964, 2967, 2966, 2967, 2969, 2978, 2969]
ch0 : [2691, 2695, 2689, 2701, 2711, 2401, 2640, 2692, 2695, 2703]
ch1 : [3196, 3187, 3190, 3193, 3189, 3193, 3191, 3192, 3193, 3190]
ch2 : [728, 723, 724, 725, 705, 714, 729, 734, 731, 728]
ch3 : [2961, 2967, 2965, 2968, 2964, 2962, 2970, 2968, 2969, 2968]
ch0 : [2675, 2688, 2707, 2680, 2598, 2692, 2693, 2696, 2696, 2709]
ch1 : [3189, 3183, 3190, 3193, 3195, 3191, 3193, 3195, 3195, 3192]
ch2 : [726, 724, 713, 708, 730, 738, 735, 732, 731, 728]
ch3 : [2966, 2964, 2965, 2968, 2968, 2969, 2969, 2968, 2964, 2966]
ch0 : [2705, 2721, 2415, 2649, 2692, 2693, 2694, 2694, 2690, 2707]
ch1 : [3196, 3185, 3193, 3189, 3190, 3195, 3191, 3185, 3191, 3186]
ch2 : [732, 709, 719, 740, 742, 737, 732, 732, 740, 722]
ch3 : [2966, 2964, 2965, 2967, 2959, 2953, 2966, 2964, 2968, 2967]
ch0 : [2701, 2590, 2692, 2694, 2703, 2701, 2690, 2668, 2705, 2390]
ch1 : [3191, 3186, 3191, 3193, 3191, 3203, 3191, 3193, 3192, 3192]
ch2 : [719, 738, 748, 744, 747, 744, 742, 748, 726, 729]
ch3 : [2966, 2965, 2966, 2964, 2967, 2963, 2962, 2966, 2963, 2964]
ch0 : [2691, 2696, 2687, 2681, 2644, 2711, 2418, 2628, 2692, 2695]
ch1 : [3192, 3191, 3190, 3191, 3190, 3193, 3191, 3190, 3194, 3200]
ch2 : [759, 761, 756, 751, 741, 731, 739, 757, 763, 758]
ch3 : [2967, 2966, 2963, 2962, 2965, 2963, 2963, 2969, 2957, 2968]
ch0 : [2701, 2697, 2690, 2712, 2721, 2579, 2693, 2697, 2696, 2699]
ch1 : [3190, 3191, 3194, 3191, 3181, 3195, 3192, 3191, 3178, 3188]
ch2 : [753, 752, 753, 746, 736, 751, 761, 763, 770, 757]
ch3 : [2962, 2965, 2967, 2968, 2966, 2972, 2967, 2967, 2978, 2964]
ch0 : [2683, 2660, 2711, 2501, 2606, 2695, 2695, 2717, 2683, 2694]
ch1 : [3192, 3191, 3191, 3187, 3193, 3190, 3196, 3190, 3189, 3190]
ch2 : [760, 759, 739, 738, 763, 770, 769, 760, 759, 760]
ch3 : [2968, 2967, 2965, 2965, 2966, 2970, 2967, 2967, 2967, 2965]
ch0 : [2719, 2710, 2553, 2693, 2699, 2696, 2703, 2682, 2658, 2707]
ch1 : [3196, 3189, 3203, 3203, 3187, 3195, 3191, 3189, 3191, 3194]
ch2 : [749, 736, 759, 768, 766, 758, 756, 763, 773, 739]
ch3 : [2962, 2962, 2969, 2970, 2967, 2964, 2966, 2967, 2969, 2965]
ch0 : [2565, 2612, 2693, 2700, 2702, 2692, 2698, 2712, 2708, 2537]
ch1 : [3192, 3191, 3192, 3196, 3191, 3187, 3193, 3191, 3194, 3193]
ch2 : [738, 760, 767, 766, 764, 757, 755, 746, 740, 756]
ch3 : [2956, 2969, 2968, 2964, 2965, 2965, 2963, 2962, 2966, 2969]
ch0 : [2695, 2695, 2695, 2699, 2688, 2656, 2710, 2687, 2595, 2696]
ch1 : [3192, 3194, 3192, 3191, 3190, 3191, 3190, 3192, 3196, 3193]
ch2 : [767, 764, 765, 750, 755, 753, 740, 733, 760, 759]
ch3 : [2967, 2965, 2962, 2963, 2968, 2967, 2963, 2969, 2968, 2969]
ch0 : [2697, 2704, 2699, 2697, 2707, 2711, 2515, 2683, 2694, 2701]
ch1 : [3189, 3191, 3197, 3187, 3183, 3190, 3191, 3192, 3195, 3190]
ch2 : [762, 747, 745, 748, 745, 735, 747, 777, 763, 760]
ch3 : [2969, 2960, 2965, 2966, 2965, 2967, 2970, 2969, 2966, 2966]
ch0 : [2701, 2703, 2651, 2711, 2643, 2564, 2692, 2703, 2711, 2679]
ch1 : [3194, 3196, 3193, 3191, 3193, 3192, 3195, 3192, 3191, 3190]
ch2 : [760, 757, 756, 742, 738, 755, 775, 758, 762, 766]
ch3 : [2967, 2967, 2967, 2962, 2964, 2969, 2972, 2969, 2966, 2965]
ch0 : [2689, 2707, 2707, 2500, 2678, 2697, 2695, 2694, 2687, 2645]
ch1 : [3191, 3191, 3192, 3191, 3191, 3187, 3193, 3190, 3205, 3193]
ch2 : [767, 764, 748, 758, 780, 778, 778, 778, 775, 771]
ch3 : [2965, 2968, 2966, 2967, 2967, 2969, 2967, 2967, 2964, 2969]
ch0 : [2707, 2668, 2568, 2691, 2689, 2699, 2701, 2696, 2702, 2703]
ch1 : [3187, 3191, 3187, 3190, 3190, 3194, 3187, 3190, 3186, 3193]
ch2 : [756, 752, 778, 786, 782, 776, 772, 776, 768, 750]
ch3 : [2964, 2967, 2972, 2973, 2961, 2969, 2967, 2967, 2969, 2969]
ch0 : [2692, 2696, 2701, 2695, 2697, 2704, 2707, 2503, 2677, 2684]
ch1 : [3194, 3194, 3192, 3189, 3192, 3194, 3193, 3195, 3191, 3190]
ch2 : [793, 793, 786, 783, 788, 787, 767, 775, 794, 792]
ch3 : [2972, 2974, 2961, 2965, 2969, 2965, 2972, 2972, 2969, 2970]
ch0 : [2696, 2699, 2703, 2670, 2724, 2713, 2542, 2695, 2697, 2706]
ch1 : [3192, 3193, 3190, 3190, 3191, 3192, 3191, 3190, 3189, 3190]
ch2 : [799, 790, 790, 786, 775, 764, 794, 805, 800, 800]
ch3 : [2972, 2962, 2966, 2970, 2972, 2966, 2967, 2970, 2968, 2967]
ch0 : [2701, 2701, 2704, 2709, 2482, 2676, 2699, 2699, 2699, 2700]
ch1 : [3191, 3191, 3188, 3187, 3192, 3190, 3188, 3178, 3189, 3190]
ch2 : [795, 796, 788, 769, 775, 798, 802, 802, 795, 785]
ch3 : [2963, 2966, 2968, 2976, 2973, 2970, 2971, 2964, 2968, 2967]
ch0 : [2666, 2712, 2708, 2517, 2670, 2699, 2697, 2701, 2697, 2700]
ch1 : [3193, 3194, 3203, 3192, 3190, 3191, 3190, 3194, 3186, 3196]
ch2 : [785, 773, 759, 786, 793, 786, 790, 783, 782, 779]
ch3 : [2971, 2966, 2954, 2966, 2972, 2969, 2967, 2976, 2967, 2964]
ch0 : [2711, 2547, 2665, 2692, 2700, 2696, 2683, 2684, 2709, 2707]
ch1 : [3193, 3180, 3193, 3191, 3190, 3190, 3186, 3188, 3187, 3196]
ch2 : [753, 759, 784, 792, 788, 788, 780, 785, 767, 758]
ch3 : [2968, 2963, 2970, 2968, 2963, 2967, 2978, 2968, 2964, 2967]
ch0 : [2501, 2681, 2696, 2701, 2702, 2683, 2694, 2711, 2618, 2645]
ch1 : [3188, 3191, 3192, 3187, 3195, 3188, 3192, 3193, 3187, 3192]
ch2 : [780, 794, 788, 781, 776, 782, 773, 751, 750, 769]
ch3 : [2963, 2975, 2973, 2963, 2969, 2964, 2969, 2965, 2976, 2969]
ch0 : [2703, 2702, 2700, 2693, 2702, 2713, 2708, 2480, 2679, 2694]
ch1 : [3189, 3194, 3193, 3192, 3192, 3191, 3190, 3195, 3192, 3187]
ch2 : [776, 766, 758, 752, 745, 734, 725, 735, 746, 736]
ch3 : [2967, 2967, 2966, 2967, 2970, 2962, 2963, 2967, 2971, 2973]
ch0 : [2703, 2704, 2697, 2682, 2708, 2675, 2642, 2693, 2690, 2699]
ch1 : [3192, 3189, 3186, 3202, 3192, 3187, 3191, 3193, 3193, 3194]
ch2 : [729, 725, 717, 717, 689, 686, 711, 715, 703, 698]
ch3 : [2970, 2962, 2966, 2972, 2967, 2981, 2968, 2969, 2968, 2967]
ch0 : [2696, 2692, 2707, 2706, 2451, 2663, 2694, 2698, 2703, 2692]
ch1 : [3190, 3192, 3195, 3189, 3192, 3187, 3190, 3191, 3193, 3193]
ch2 : [693, 681, 670, 648, 662, 674, 675, 665, 655, 650]
ch3 : [2966, 2969, 2967, 2965, 2966, 2970, 2972, 2969, 2966, 2967]
ch0 : [2678, 2709, 2687, 2627, 2707, 2695, 2701, 2698, 2687, 2713]
ch1 : [3202, 3194, 3191, 3188, 3191, 3204, 3193, 3194, 3200, 3191]
ch2 : [649, 630, 617, 627, 630, 627, 619, 615, 605, 596]
ch3 : [2967, 2968, 2969, 2972, 2963, 2968, 2967, 2967, 2969, 2967]
ch0 : [2705, 2459, 2661, 2698, 2699, 2702, 2695, 2675, 2705, 2699]
ch1 : [3192, 3196, 3193, 3190, 3192, 3190, 3191, 3190, 3194, 3186]
ch2 : [576, 586, 597, 591, 580, 571, 569, 569, 548, 545]
ch3 : [2969, 2981, 2970, 2974, 2970, 2969, 2965, 2967, 2969, 2973]
ch0 : [2604, 2696, 2698, 2697, 2696, 2698, 2708, 2713, 2405, 2646]
ch1 : [3192, 3193, 3194, 3192, 3200, 3194, 3192, 3193, 3192, 3193]
ch2 : [561, 558, 552, 547, 540, 543, 535, 515, 520, 534]
ch3 : [2972, 2970, 2970, 2967, 2973, 2969, 2967, 2970, 2967, 2968]
ch0 : [2693, 2707, 2699, 2680, 2702, 2708, 2709, 2601, 2697, 2694]
ch1 : [3196, 3191, 3193, 3189, 3195, 3190, 3194, 3189, 3191, 3192]
ch2 : [531, 524, 514, 512, 516, 496, 491, 503, 504, 505]
ch3 : [2972, 2973, 2968, 2968, 2973, 2968, 2974, 2972, 2971, 2970]
ch0 : [2700, 2697, 2673, 2707, 2703, 2406, 2643, 2697, 2695, 2699]
ch1 : [3191, 3193, 3189, 3187, 3199, 3195, 3193, 3192, 3187, 3195]
ch2 : [491, 479, 473, 473, 457, 464, 480, 478, 478, 456]
ch3 : [2973, 2968, 2968, 2969, 2966, 2970, 2972, 2969, 2972, 2969]
ch0 : [2697, 2692, 2706, 2708, 2595, 2690, 2697, 2701, 2697, 2673]
ch1 : [3192, 3197, 3195, 3194, 3195, 3196, 3190, 3194, 3187, 3193]
ch2 : [456, 452, 436, 432, 454, 456, 445, 448, 442, 435]
ch3 : [2970, 2970, 2976, 2975, 2972, 2974, 2970, 2968, 2967, 2971]
ch0 : [2697, 2710, 2397, 2635, 2693, 2695, 2701, 2694, 2700, 2706]
ch1 : [3194, 3194, 3193, 3191, 3191, 3194, 3192, 3195, 3192, 3194]
ch2 : [430, 415, 413, 447, 412, 435, 415, 414, 410, 404]
ch3 : [2973, 2970, 2972, 2971, 2970, 2973, 2967, 2972, 2969, 2970]
ch0 : [2706, 2591, 2689, 2696, 2699, 2697, 2664, 2665, 2703, 2392]
ch1 : [3196, 3178, 3192, 3190, 3188, 3191, 3187, 3189, 3193, 3195]
ch2 : [388, 388, 418, 384, 344, 360, 371, 403, 501, 236]
ch3 : [2973, 2974, 2967, 2973, 2969, 2968, 2972, 2971, 2964, 2968]
ch0 : [2633, 2689, 2707, 2700, 2695, 2694, 2721, 2707, 2579, 2694]
ch1 : [3190, 3194, 3190, 3191, 3200, 3185, 3193, 3191, 3196, 3193]
ch2 : [253, 265, 285, 299, 311, 322, 334, 354, 390, 334]
ch3 : [2971, 2968, 2957, 2976, 2965, 2969, 2968, 2970, 2976, 2971]
ch0 : [2709, 2701, 2699, 2668, 2667, 2704, 2423, 2630, 2692, 2704]
ch1 : [3189, 3191, 3199, 3190, 3192, 3192, 3202, 3190, 3195, 3189]
ch2 : [212, 220, 235, 242, 252, 262, 266, 271, 274, 281]
ch3 : [2971, 2963, 2967, 2973, 2969, 2972, 2968, 2967, 2970, 2970]
ch0 : [2701, 2672, 2695, 2708, 2706, 2550, 2681, 2695, 2696, 2701]
ch1 : [3195, 3193, 3190, 3191, 3194, 3193, 3193, 3191, 3191, 3190]
ch2 : [292, 294, 300, 304, 310, 314, 320, 328, 340, 340]
ch3 : [2968, 2963, 2967, 2973, 2970, 2976, 2972, 2973, 2973, 2975]
ch0 : [2707, 2703, 2543, 2692, 2697, 2695, 2696, 2683, 2642, 2704]
ch1 : [3198, 3192, 3191, 3195, 3191, 3190, 3192, 3193, 3195, 3190]
ch2 : [264, 268, 276, 274, 281, 286, 284, 289, 291, 295]
ch3 : [2971, 2971, 2974, 2972, 2972, 2971, 2967, 2972, 2974, 2972]
ch0 : [2569, 2606, 2684, 2694, 2698, 2692, 2686, 2707, 2719, 2534]
ch1 : [3193, 3191, 3190, 3197, 3192, 3191, 3191, 3194, 3191, 3199]
ch2 : [300, 300, 305, 300, 317, 317, 331, 322, 325, 332]
ch3 : [2961, 2970, 2972, 2967, 2970, 2969, 2969, 2976, 2969, 2975]
ch0 : [2688, 2692, 2708, 2699, 2676, 2652, 2705, 2662, 2577, 2683]
ch1 : [3196, 3196, 3190, 3191, 3195, 3191, 3193, 3179, 3188, 3191]
ch2 : [343, 355, 398, 138, 192, 210, 222, 235, 234, 243]
ch3 : [2976, 2964, 2968, 2971, 2973, 2970, 2971, 2976, 2967, 2973]
ch0 : [2691, 2684, 2693, 2690, 2709, 2702, 2520, 2692, 2693, 2696]
ch1 : [3190, 3202, 3192, 3195, 3188, 3192, 3192, 3191, 3197, 3191]
ch2 : [251, 256, 260, 269, 265, 272, 275, 276, 279, 283]
ch3 : [2969, 2972, 2970, 2967, 2968, 2969, 2975, 2974, 2975, 2973]
ch0 : [2699, 2666, 2637, 2706, 2681, 2565, 2687, 2693, 2701, 2692]
ch1 : [3189, 3191, 3190, 3192, 3194, 3194, 3196, 3194, 3194, 3190]
ch2 : [289, 292, 276, 293, 296, 300, 298, 305, 312, 305]
ch3 : [2973, 2979, 2964, 2967, 2958, 2977, 2976, 2973, 2969, 2967]
ch0 : [2690, 2700, 2701, 2492, 2677, 2693, 2691, 2692, 2680, 2656]
ch1 : [3194, 3192, 3196, 3193, 3192, 3188, 3193, 3194, 3186, 3191]
ch2 : [315, 322, 321, 326, 329, 339, 345, 366, 451, 164]
ch3 : [2971, 2971, 2978, 2970, 2972, 2970, 2968, 2973, 2971, 2970]
ch0 : [2702, 2702, 2544, 2682, 2693, 2695, 2690, 2683, 2694, 2701]
ch1 : [3192, 3196, 3194, 3201, 3193, 3203, 3192, 3205, 3192, 3187]
ch2 : [201, 202, 224, 232, 242, 245, 254, 256, 263, 264]
ch3 : [2968, 2971, 2971, 2972, 2975, 2970, 2980, 2968, 2974, 2970]
ch0 : [2472, 2668, 2689, 2687, 2688, 2687, 2658, 2702, 2627, 2554]
ch1 : [3196, 3189, 3189, 3191, 3193, 3190, 3190, 3193, 3192, 3195]
ch2 : [258, 275, 273, 279, 283, 284, 282, 289, 297, 295]
ch3 : [2974, 2973, 2972, 2967, 2969, 2970, 2973, 2968, 2971, 2970]
ch0 : [2685, 2688, 2696, 2694, 2692, 2699, 2703, 2470, 2668, 2693]
ch1 : [3196, 3194, 3187, 3193, 3193, 3190, 3194, 3195, 3195, 3192]
ch2 : [302, 301, 300, 304, 313, 312, 318, 318, 320, 324]
ch3 : [2976, 2972, 2972, 2968, 2968, 2972, 2970, 2976, 2974, 2971]
ch0 : [2691, 2693, 2683, 2662, 2705, 2699, 2515, 2675, 2690, 2697]
ch1 : [3191, 3196, 3188, 3190, 3206, 3192, 3194, 3193, 3196, 3183]
ch2 : [324, 333, 342, 355, 417, 154, 194, 211, 220, 230]
ch3 : [2966, 2965, 2967, 2972, 2971, 2972, 2974, 2973, 2972, 2970]
ch0 : [2694, 2679, 2697, 2703, 2483, 2652, 2692, 2690, 2688, 2673]
ch1 : [3189, 3190, 3191, 3192, 3192, 3191, 3194, 3197, 3192, 3187]
ch2 : [241, 254, 249, 254, 262, 265, 267, 270, 274, 276]
ch3 : [2970, 2970, 2972, 2969, 2971, 2973, 2976, 2971, 2970, 2970]
ch0 : [2668, 2702, 2632, 2519, 2665, 2684, 2694, 2693, 2684, 2691]
ch1 : [3200, 3192, 3192, 3195, 3193, 3193, 3196, 3193, 3192, 3191]
ch2 : [279, 283, 285, 288, 290, 295, 298, 298, 300, 308]
ch3 : [2971, 2968, 2971, 2972, 2964, 2971, 2972, 2966, 2966, 2971]
ch0 : [2702, 2526, 2650, 2684, 2692, 2694, 2689, 2677, 2705, 2698]
ch1 : [3193, 3191, 3196, 3194, 3192, 3191, 3191, 3191, 3191, 3192]
ch2 : [305, 310, 316, 316, 313, 324, 328, 332, 342, 351]
ch3 : [2974, 2976, 2974, 2974, 2972, 2970, 2970, 2973, 2957, 2966]
ch0 : [2491, 2670, 2689, 2693, 2703, 2682, 2677, 2699, 2596, 2634]
ch1 : [3188, 3190, 3196, 3195, 3191, 3193, 3186, 3193, 3197, 3187]
ch2 : [384, 395, 185, 209, 217, 229, 241, 230, 243, 253]
ch3 : [2973, 2974, 2972, 2966, 2976, 2963, 2967, 2967, 2971, 2973]
ch0 : [2682, 2690, 2693, 2695, 2686, 2714, 2695, 2488, 2672, 2686]
ch1 : [3190, 3194, 3193, 3192, 3190, 3195, 3194, 3192, 3193, 3192]
ch2 : [252, 267, 266, 270, 271, 276, 278, 281, 285, 278]
ch3 : [2970, 2971, 2972, 2966, 2972, 2968, 2968, 2963, 2972, 2973]
ch0 : [2699, 2689, 2670, 2672, 2701, 2647, 2630, 2689, 2683, 2694]
ch1 : [3194, 3186, 3191, 3187, 3200, 3205, 3191, 3195, 3190, 3187]
ch2 : [290, 292, 298, 298, 315, 303, 305, 309, 314, 313]
ch3 : [2972, 2968, 2967, 2976, 2967, 2971, 2970, 2969, 2972, 2968]
ch0 : [2686, 2691, 2693, 2700, 2461, 2647, 2683, 2692, 2691, 2676]
ch1 : [3190, 3196, 3197, 3195, 3192, 3189, 3192, 3193, 3191, 3192]
ch2 : [318, 321, 325, 332, 338, 345, 368, 480, 174, 199]
ch3 : [2970, 2971, 2972, 2969, 2970, 2972, 2974, 2970, 2965, 2973]
ch0 : [2667, 2702, 2676, 2621, 2688, 2686, 2689, 2689, 2689, 2702]
ch1 : [3180, 3196, 3191, 3189, 3196, 3192, 3187, 3194, 3187, 3187]
ch2 : [213, 225, 229, 245, 245, 250, 256, 260, 264, 267]
ch3 : [2964, 2976, 2968, 2972, 2972, 2970, 2965, 2969, 2982, 2969]
ch0 : [2700, 2441, 2658, 2684, 2687, 2696, 2682, 2673, 2705, 2699]
ch1 : [3194, 3196, 3190, 3187, 3195, 3191, 3190, 3191, 3192, 3192]
ch2 : [271, 276, 283, 280, 283, 285, 291, 293, 291, 294]
ch3 : [2968, 2975, 2970, 2974, 2969, 2962, 2964, 2969, 2959, 2972]
ch0 : [2620, 2689, 2689, 2692, 2691, 2693, 2700, 2703, 2426, 2658]
ch1 : [3193, 3187, 3187, 3190, 3194, 3193, 3187, 3191, 3197, 3187]
ch2 : [300, 302, 305, 309, 313, 314, 328, 321, 319, 329]
ch3 : [2974, 2969, 2969, 2967, 2970, 2968, 2970, 2968, 2968, 2976]
ch0 : [2692, 2694, 2687, 2700, 2705, 2413, 2644, 2703, 2686, 2698]
ch1 : [3191, 3194, 3196, 3195, 3187, 3194, 3191, 3195, 3190, 3195]
ch2 : [243, 246, 254, 259, 264, 264, 268, 274, 278, 279]
ch3 : [2969, 2969, 2976, 2971, 2969, 2966, 2972, 2971, 2978, 2965]
ch0 : [2660, 2677, 2705, 2695, 2592, 2690, 2679, 2686, 2693, 2679]
ch1 : [3191, 3200, 3192, 3192, 3196, 3193, 3191, 3188, 3194, 3189]
ch2 : [276, 281, 287, 285, 292, 296, 299, 298, 302, 304]
ch3 : [2968, 2969, 2970, 2970, 2960, 2971, 2967, 2966, 2970, 2970]
ch0 : [2699, 2695, 2406, 2641, 2687, 2687, 2694, 2684, 2675, 2703]
ch1 : [3191, 3189, 3194, 3192, 3192, 3191, 3191, 3191, 3193, 3197]
ch2 : [301, 311, 316, 316, 323, 328, 333, 336, 344, 363]
ch3 : [2967, 2965, 2967, 2970, 2968, 2972, 2967, 2967, 2967, 2968]
ch0 : [2702, 2566, 2692, 2691, 2691, 2695, 2660, 2703, 2706, 2380]
ch1 : [3192, 3194, 3194, 3189, 3187, 3193, 3196, 3191, 3192, 3196]
ch2 : [448, 160, 187, 208, 224, 233, 238, 242, 246, 256]
ch3 : [2964, 2968, 2970, 2966, 2960, 2968, 2968, 2968, 2964, 2956]
ch0 : [2629, 2686, 2674, 2694, 2687, 2680, 2703, 2703, 2571, 2690]
ch1 : [3186, 3189, 3189, 3194, 3190, 3201, 3194, 3203, 3192, 3191]
ch2 : [257, 260, 267, 269, 277, 272, 280, 283, 289, 288]
ch3 : [2973, 2972, 2971, 2959, 2967, 2966, 2969, 2971, 2972, 2973]
ch0 : [2684, 2691, 2693, 2671, 2649, 2706, 2384, 2617, 2683, 2689]
ch1 : [3189, 3191, 3191, 3194, 3193, 3193, 3197, 3181, 3190, 3194]
ch2 : [288, 292, 296, 299, 300, 304, 310, 312, 311, 315]
ch3 : [2976, 2969, 2969, 2970, 2969, 2968, 2969, 2971, 2972, 2971]
ch0 : [2706, 2682, 2692, 2704, 2700, 2567, 2687, 2692, 2695, 2690]
ch1 : [3191, 3192, 3193, 3191, 3182, 3193, 3192, 3187, 3193, 3190]
ch2 : [318, 323, 327, 331, 344, 353, 405, 150, 187, 205]
ch3 : [2964, 2967, 2967, 2962, 2967, 2970, 2968, 2973, 2966, 2967]
ch0 : [2669, 2657, 2705, 2451, 2598, 2692, 2689, 2687, 2671, 2704]
ch1 : [3191, 3191, 3192, 3195, 3186, 3187, 3191, 3186, 3196, 3193]
ch2 : [222, 228, 240, 244, 252, 254, 253, 260, 266, 269]
ch3 : [2957, 2968, 2969, 2965, 2958, 2972, 2970, 2966, 2968, 2955]
ch0 : [2703, 2702, 2544, 2682, 2686, 2687, 2691, 2681, 2650, 2701]
ch1 : [3191, 3191, 3191, 3191, 3193, 3188, 3187, 3191, 3187, 3190]
ch2 : [274, 269, 279, 284, 284, 290, 294, 297, 293, 313]
ch3 : [2968, 2975, 2973, 2973, 2968, 2958, 2965, 2968, 2971, 2967]
ch0 : [2534, 2606, 2679, 2687, 2694, 2672, 2691, 2705, 2697, 2517]
ch1 : [3192, 3192, 3189, 3187, 3195, 3190, 3187, 3191, 3187, 3194]
ch2 : [296, 306, 307, 323, 312, 317, 316, 326, 324, 330]
ch3 : [2968, 2971, 2968, 2973, 2965, 2967, 2967, 2968, 2974, 2973]
ch0 : [2681, 2687, 2690, 2690, 2679, 2643, 2702, 2586, 2585, 2685]
ch1 : [3201, 3192, 3197, 3193, 3193, 3200, 3188, 3191, 3178, 3192]
ch2 : [338, 349, 353, 446, 165, 198, 212, 228, 232, 240]
ch3 : [2970, 2974, 2973, 2969, 2968, 2972, 2965, 2966, 2974, 2973]
ch0 : [2688, 2692, 2685, 2687, 2700, 2701, 2522, 2672, 2689, 2690]
ch1 : [3197, 3193, 3191, 3185, 3196, 3200, 3196, 3200, 3194, 3205]
ch2 : [248, 256, 256, 260, 263, 267, 272, 275, 277, 280]
ch3 : [2973, 2971, 2968, 2969, 2971, 2971, 2972, 2973, 2976, 2970]
ch0 : [2693, 2681, 2650, 2705, 2697, 2573, 2685, 2691, 2702, 2692]
ch1 : [3190, 3190, 3192, 3195, 3192, 3192, 3194, 3195, 3192, 3188]
ch2 : [287, 285, 288, 293, 293, 296, 297, 301, 296, 303]
ch3 : [2970, 2972, 2970, 2972, 2968, 2972, 2974, 2972, 2965, 2963]
ch0 : [2689, 2702, 2701, 2512, 2680, 2681, 2691, 2694, 2681, 2650]
ch1 : [3193, 3191, 3192, 3194, 3191, 3193, 3189, 3188, 3190, 3184]
ch2 : [309, 315, 309, 320, 324, 338, 331, 337, 351, 382]
ch3 : [2969, 2974, 2969, 2973, 2973, 2976, 2959, 2970, 2968, 2971]
ch0 : [2698, 2701, 2562, 2682, 2687, 2697, 2691, 2691, 2706, 2706]
ch1 : [3191, 3192, 3194, 3194, 3176, 3190, 3190, 3191, 3188, 3189]
ch2 : [349, 183, 208, 224, 229, 238, 246, 250, 253, 256]
ch3 : [2970, 2965, 2971, 2972, 2977, 2968, 2968, 2963, 2970, 2970]
ch0 : [2496, 2679, 2687, 2698, 2691, 2684, 2667, 2706, 2704, 2541]
ch1 : [3193, 3189, 3187, 3195, 3198, 3191, 3191, 3190, 3192, 3206]
ch2 : [262, 266, 268, 265, 277, 276, 292, 286, 286, 290]
ch3 : [2971, 2974, 2972, 2971, 2969, 2970, 2973, 2966, 2964, 2972]
ch0 : [2681, 2693, 2699, 2695, 2687, 2709, 2704, 2465, 2668, 2692]
ch1 : [3189, 3189, 3194, 3191, 3187, 3188, 3198, 3199, 3194, 3195]
ch2 : [296, 294, 299, 300, 309, 303, 309, 311, 314, 318]
ch3 : [2974, 2975, 2969, 2968, 2967, 2969, 2969, 2967, 2975, 2976]
ch0 : [2691, 2694, 2694, 2648, 2699, 2704, 2533, 2681, 2690, 2695]
ch1 : [3189, 3184, 3194, 3197, 3190, 3196, 3188, 3193, 3186, 3193]
ch2 : [320, 324, 329, 335, 346, 364, 427, 155, 197, 207]
ch3 : [2965, 2971, 2971, 2966, 2967, 2967, 2967, 2972, 2971, 2968]
ch0 : [2692, 2679, 2698, 2698, 2486, 2653, 2686, 2672, 2693, 2660]
ch1 : [3194, 3186, 3193, 3190, 3191, 3191, 3187, 3194, 3187, 3193]
ch2 : [222, 230, 238, 243, 250, 254, 254, 263, 267, 271]
ch3 : [2966, 2970, 2967, 2972, 2972, 2972, 2968, 2980, 2976, 2968]
ch0 : [2662, 2708, 2691, 2516, 2685, 2688, 2711, 2693, 2671, 2694]
ch1 : [3188, 3191, 3193, 3197, 3187, 3192, 3191, 3194, 3186, 3195]
ch2 : [274, 276, 280, 284, 287, 291, 292, 295, 296, 299]
ch3 : [2963, 2969, 2968, 2973, 2973, 2971, 2981, 2967, 2971, 2968]
ch0 : [2703, 2483, 2655, 2687, 2687, 2694, 2668, 2673, 2698, 2690]
ch1 : [3197, 3195, 3194, 3193, 3190, 3194, 3190, 3195, 3190, 3187]
ch2 : [312, 305, 306, 309, 313, 319, 319, 322, 320, 332]
ch3 : [2971, 2970, 2973, 2971, 2967, 2973, 2969, 2968, 2972, 2966]
ch0 : [2496, 2676, 2697, 2697, 2697, 2681, 2687, 2719, 2598, 2631]
ch1 : [3191, 3194, 3192, 3201, 3194, 3188, 3190, 3190, 3193, 3190]
ch2 : [337, 356, 386, 157, 183, 207, 217, 230, 235, 242]
ch3 : [2965, 2974, 2971, 2973, 2976, 2971, 2958, 2972, 2973, 2973]
ch0 : [2691, 2695, 2694, 2690, 2689, 2708, 2694, 2494, 2673, 2693]
ch1 : [3183, 3192, 3193, 3195, 3193, 3192, 3192, 3195, 3190, 3193]
ch2 : [248, 259, 258, 262, 266, 269, 272, 278, 278, 282]
ch3 : [2972, 2970, 2969, 2968, 2971, 2969, 2968, 2974, 2974, 2971]
ch0 : [2691, 2696, 2681, 2690, 2705, 2595, 2639, 2683, 2694, 2692]
ch1 : [3192, 3192, 3189, 3188, 3191, 3190, 3194, 3190, 3205, 3191]
ch2 : [288, 292, 289, 293, 296, 296, 300, 302, 307, 310]
ch3 : [2960, 2969, 2968, 2956, 2970, 2967, 2971, 2973, 2969, 2969]
ch0 : [2693, 2689, 2708, 2687, 2483, 2668, 2692, 2692, 2695, 2694]
ch1 : [3194, 3193, 3191, 3189, 3191, 3190, 3191, 3196, 3192, 3193]
ch2 : [317, 318, 320, 324, 328, 337, 340, 354, 403, 147]
ch3 : [2970, 2968, 2970, 2966, 2970, 2974, 2970, 2969, 2967, 2977]
ch0 : [2680, 2706, 2621, 2630, 2681, 2692, 2699, 2692, 2690, 2704]
ch1 : [3191, 3195, 3193, 3190, 3196, 3197, 3192, 3190, 3195, 3187]
ch2 : [186, 209, 221, 226, 239, 245, 252, 254, 260, 263]
ch3 : [2956, 2982, 2971, 2972, 2973, 2971, 2966, 2973, 2969, 2971]
ch0 : [2717, 2466, 2649, 2692, 2693, 2700, 2680, 2668, 2704, 2692]
ch1 : [3187, 3190, 3189, 3192, 3193, 3191, 3195, 3191, 3195, 3192]
ch2 : [270, 270, 274, 278, 280, 282, 288, 289, 290, 293]
ch3 : [2969, 2971, 2978, 2974, 2970, 2963, 2966, 2973, 2967, 2973]
ch0 : [2686, 2691, 2696, 2679, 2666, 2708, 2703, 2609, 2688, 2693]
ch1 : [3192, 3187, 3198, 3193, 3188, 3191, 3192, 3191, 3193, 3191]
ch2 : [332, 348, 365, 437, 165, 196, 196, 225, 233, 242]
ch3 : [2976, 2973, 2964, 2968, 2970, 2969, 2971, 2975, 2971, 2971]
ch0 : [2696, 2700, 2690, 2702, 2704, 2431, 2652, 2687, 2689, 2698]
ch1 : [3189, 3192, 3190, 3191, 3193, 3193, 3189, 3187, 3196, 3190]
ch2 : [247, 247, 258, 271, 266, 265, 277, 264, 280, 281]
ch3 : [2969, 2966, 2971, 2970, 2967, 2968, 2971, 2974, 2982, 2969]
ch0 : [2694, 2687, 2706, 2700, 2614, 2687, 2691, 2695, 2699, 2671]
ch1 : [3187, 3188, 3193, 3195, 3192, 3191, 3195, 3193, 3192, 3187]
ch2 : [285, 288, 293, 294, 298, 297, 307, 309, 313, 313]
ch3 : [2965, 2968, 2968, 2968, 2976, 2970, 2967, 2968, 2967, 2966]
ch0 : [2707, 2691, 2414, 2647, 2685, 2692, 2704, 2681, 2684, 2705]
ch1 : [3193, 3193, 3192, 3191, 3190, 3191, 3191, 3191, 3190, 3187]
ch2 : [327, 325, 337, 345, 378, 549, 177, 206, 221, 229]
ch3 : [2967, 2962, 2962, 2969, 2972, 2964, 2967, 2962, 2976, 2954]
ch0 : [2704, 2594, 2683, 2687, 2692, 2697, 2683, 2701, 2700, 2395]
ch1 : [3191, 3192, 3193, 3193, 3188, 3192, 3191, 3189, 3193, 3193]
ch2 : [237, 250, 251, 256, 262, 266, 273, 274, 278, 284]
ch3 : [2965, 2971, 2968, 2968, 2966, 2963, 2966, 2968, 2965, 2953]
ch0 : [2631, 2694, 2691, 2699, 2686, 2683, 2705, 2701, 2591, 2691]
ch1 : [3192, 3196, 3190, 3193, 3191, 3192, 3194, 3191, 3189, 3188]
ch2 : [284, 291, 290, 294, 300, 301, 305, 312, 314, 317]
ch3 : [2968, 2969, 2966, 2964, 2961, 2962, 2963, 2965, 2959, 2963]
ch0 : [2697, 2692, 2694, 2665, 2678, 2702, 2387, 2628, 2679, 2689]
ch1 : [3191, 3191, 3191, 3186, 3188, 3192, 3196, 3200, 3195, 3197]
ch2 : [327, 339, 362, 441, 173, 201, 215, 228, 237, 246]
ch3 : [2961, 2966, 2965, 2963, 2963, 2965, 2964, 2968, 2966, 2965]
ch0 : [2700, 2680, 2686, 2697, 2701, 2567, 2691, 2692, 2699, 2697]
ch1 : [3195, 3193, 3197, 3197, 3189, 3192, 3194, 3193, 3192, 3194]
ch2 : [251, 256, 261, 268, 272, 273, 272, 282, 288, 290]
ch3 : [2963, 2961, 2962, 2965, 2962, 2964, 2965, 2962, 2961, 2964]
ch0 : [2706, 2706, 2553, 2684, 2694, 2692, 2694, 2673, 2642, 2704]
ch1 : [3193, 3185, 3191, 3192, 3194, 3190, 3191, 3191, 3194, 3176]
ch2 : [154, 195, 215, 225, 236, 239, 243, 256, 266, 265]
ch3 : [2951, 2962, 2967, 2963, 2960, 2966, 2961, 2964, 2963, 2960]
ch0 : [2471, 2612, 2678, 2702, 2699, 2683, 2683, 2703, 2708, 2539]
ch1 : [3193, 3191, 3192, 3177, 3190, 3191, 3196, 3195, 3195, 3191]
ch2 : [276, 274, 280, 283, 288, 292, 296, 308, 306, 310]
ch3 : [2963, 2964, 2965, 2967, 2964, 2958, 2964, 2959, 2970, 2969]
ch0 : [2679, 2692, 2692, 2696, 2671, 2642, 2717, 2542, 2600, 2685]
ch1 : [3193, 3195, 3192, 3200, 3193, 3195, 3191, 3187, 3193, 3186]
ch2 : [315, 317, 332, 339, 360, 439, 170, 200, 215, 224]
ch3 : [2963, 2960, 2962, 2955, 2964, 2966, 2962, 2951, 2968, 2968]
ch0 : [2689, 2696, 2685, 2686, 2705, 2702, 2540, 2678, 2702, 2692]
ch1 : [3192, 3188, 3191, 3190, 3192, 3195, 3195, 3191, 3193, 3191]
ch2 : [236, 244, 248, 259, 256, 262, 268, 282, 294, 284]
ch3 : [2964, 2960, 2960, 2957, 2961, 2963, 2962, 2966, 2964, 2965]
ch0 : [2688, 2683, 2651, 2708, 2577, 2583, 2687, 2688, 2694, 2685]
ch1 : [3193, 3193, 3193, 3190, 3198, 3196, 3205, 3196, 3190, 3194]
ch2 : [286, 294, 298, 304, 308, 314, 320, 329, 346, 366]
ch3 : [2961, 2966, 2956, 2959, 2958, 2966, 2964, 2965, 2962, 2959]
ch0 : [2692, 2702, 2697, 2519, 2677, 2694, 2692, 2699, 2678, 2657]
ch1 : [3190, 3193, 3196, 3197, 3205, 3190, 3191, 3193, 3191, 3191]
ch2 : [481, 193, 205, 222, 230, 240, 248, 250, 260, 262]
ch3 : [2959, 2958, 2962, 2967, 2968, 2972, 2963, 2960, 2959, 2965]
ch0 : [2703, 2657, 2567, 2675, 2692, 2696, 2681, 2692, 2687, 2702]
ch1 : [3193, 3192, 3193, 3193, 3192, 3183, 3191, 3192, 3190, 3189]
ch2 : [270, 275, 276, 282, 282, 292, 296, 296, 309, 315]
ch3 : [2963, 2960, 2966, 2969, 2968, 2964, 2962, 2960, 2963, 2965]
ch0 : [2687, 2692, 2695, 2693, 2689, 2704, 2702, 2503, 2674, 2691]
ch1 : [3192, 3190, 3194, 3191, 3191, 3192, 3187, 3194, 3191, 3188]
ch2 : [236, 265, 254, 262, 263, 273, 277, 275, 284, 300]
ch3 : [2967, 2967, 2964, 2963, 2961, 2968, 2969, 2969, 2961, 2968]
ch0 : [2691, 2695, 2682, 2670, 2699, 2700, 2552, 2682, 2691, 2697]
ch1 : [3189, 3192, 3198, 3187, 3195, 3192, 3184, 3191, 3193, 3187]
ch2 : [298, 295, 309, 311, 317, 325, 336, 355, 404, 159]
ch3 : [2968, 2964, 2965, 2967, 2965, 2969, 2965, 2967, 2968, 2969]
ch0 : [2696, 2690, 2702, 2704, 2487, 2668, 2701, 2693, 2701, 2692]
ch1 : [3193, 3190, 3195, 3193, 3201, 3193, 3190, 3193, 3192, 3192]
ch2 : [198, 214, 228, 236, 245, 236, 261, 263, 269, 272]
ch3 : [2964, 2963, 2969, 2968, 2970, 2969, 2965, 2969, 2967, 2969]
ch0 : [2668, 2705, 2703, 2544, 2687, 2685, 2710, 2711, 2695, 2699]
ch1 : [3189, 3190, 3194, 3204, 3190, 3193, 3193, 3192, 3189, 3187]
ch2 : [279, 285, 287, 293, 298, 303, 311, 322, 326, 347]
ch3 : [2965, 2959, 2967, 2967, 2971, 2980, 2968, 2949, 2964, 2965]
ch0 : [2709, 2470, 2665, 2694, 2693, 2697, 2692, 2673, 2707, 2706]
ch1 : [3191, 3193, 3189, 3197, 3193, 3191, 3187, 3190, 3192, 3190]
ch2 : [378, 548, 184, 210, 224, 242, 243, 251, 258, 265]
ch3 : [2965, 2968, 2966, 2971, 2967, 2965, 2964, 2966, 2967, 2960]
ch0 : [2531, 2680, 2691, 2699, 2696, 2692, 2698, 2710, 2489, 2662]
ch1 : [3191, 3190, 3199, 3201, 3191, 3198, 3193, 3190, 3192, 3195]
ch2 : [271, 285, 288, 293, 300, 309, 321, 327, 340, 367]
ch3 : [2968, 2972, 2971, 2972, 2963, 2967, 2965, 2965, 2967, 2970]
ch0 : [2692, 2694, 2694, 2687, 2680, 2705, 2708, 2514, 2675, 2695]
ch1 : [3192, 3191, 3202, 3190, 3191, 3194, 3193, 3197, 3187, 3185]
ch2 : [473, 189, 205, 226, 236, 245, 264, 259, 266, 274]
ch3 : [2965, 2967, 2966, 2966, 2969, 2965, 2968, 2968, 2973, 2968]
ch0 : [2699, 2699, 2682, 2704, 2709, 2588, 2648, 2695, 2690, 2698]
ch1 : [3193, 3202, 3191, 3195, 3190, 3200, 3190, 3191, 3192, 3187]
ch2 : [280, 294, 302, 312, 318, 331, 353, 385, 387, 195]
ch3 : [2967, 2965, 2967, 2963, 2965, 2966, 2967, 2966, 2967, 2965]
ch0 : [2686, 2709, 2639, 2640, 2695, 2685, 2708, 2697, 2694, 2704]
ch1 : [3191, 3193, 3196, 3193, 3196, 3193, 3195, 3192, 3192, 3191]
ch2 : [330, 354, 392, 167, 202, 223, 239, 248, 251, 278]
ch3 : [2964, 2966, 2968, 2969, 2969, 2968, 2966, 2963, 2966, 2967]
ch0 : [2695, 2478, 2665, 2693, 2699, 2696, 2689, 2681, 2708, 2649]
ch1 : [3190, 3192, 3186, 3190, 3193, 3189, 3192, 3189, 3192, 3189]
ch2 : [283, 291, 315, 334, 373, 508, 199, 218, 236, 246]
ch3 : [2965, 2964, 2970, 2968, 2970, 2963, 2959, 2965, 2968, 2967]
ch0 : [2643, 2688, 2694, 2703, 2694, 2689, 2710, 2691, 2455, 2668]
ch1 : [3192, 3190, 3193, 3191, 3204, 3192, 3190, 3190, 3193, 3191]
ch2 : [259, 274, 298, 318, 343, 384, 540, 201, 217, 240]
ch3 : [2971, 2967, 2968, 2966, 2966, 2966, 2964, 2966, 2968, 2973]
ch0 : [2694, 2696, 2686, 2672, 2673, 2700, 2706, 2631, 2690, 2696]
ch1 : [3192, 3194, 3193, 3205, 3191, 3192, 3190, 3191, 3193, 3187]
ch2 : [260, 285, 301, 314, 335, 359, 445, 181, 220, 249]
ch3 : [2971, 2970, 2968, 2964, 2966, 2963, 2971, 2970, 2966, 2970]
ch0 : [2695, 2700, 2711, 2705, 2712, 2452, 2658, 2695, 2708, 2701]
ch1 : [3184, 3176, 3192, 3193, 3191, 3193, 3190, 3181, 3196, 3193]
ch2 : [254, 275, 285, 302, 312, 327, 352, 432, 193, 217]
ch3 : [2967, 2969, 2970, 2966, 2969, 2964, 2972, 2969, 2970, 2965]
ch0 : [2682, 2679, 2712, 2708, 2607, 2695, 2696, 2701, 2697, 2694]
ch1 : [3191, 3191, 3187, 3193, 3183, 3193, 3196, 3192, 3192, 3191]
ch2 : [227, 247, 262, 272, 285, 307, 337, 374, 505, 207]
ch3 : [2967, 2966, 2968, 2969, 2970, 2969, 2968, 2963, 2966, 2970]
ch0 : [2703, 2709, 2415, 2649, 2699, 2692, 2703, 2677, 2673, 2713]
ch1 : [3196, 3189, 3196, 3195, 3178, 3196, 3189, 3191, 3195, 3191]
ch2 : [224, 239, 248, 264, 289, 314, 337, 371, 472, 202]
ch3 : [2969, 2976, 2970, 2968, 2966, 2972, 2963, 2967, 2968, 2968]
ch0 : [2708, 2607, 2695, 2697, 2694, 2703, 2680, 2709, 2704, 2415]
ch1 : [3191, 3193, 3187, 3195, 3193, 3193, 3194, 3191, 3190, 3194]
ch2 : [228, 234, 254, 276, 298, 322, 349, 392, 180, 210]
ch3 : [2969, 2968, 2967, 2979, 2969, 2968, 2969, 2970, 2965, 2976]
ch0 : [2656, 2696, 2699, 2707, 2681, 2669, 2717, 2713, 2602, 2694]
ch1 : [3195, 3190, 3192, 3192, 3193, 3193, 3195, 3193, 3193, 3191]
ch2 : [234, 243, 280, 304, 328, 357, 426, 197, 216, 249]
ch3 : [2973, 2970, 2971, 2962, 2969, 2956, 2966, 2969, 2970, 2977]
ch0 : [2692, 2698, 2687, 2680, 2704, 2710, 2402, 2636, 2696, 2700]
ch1 : [3191, 3194, 3191, 3196, 3196, 3192, 3195, 3193, 3194, 3196]
ch2 : [256, 299, 330, 363, 455, 208, 228, 250, 289, 318]
ch3 : [2971, 2967, 2967, 2968, 2976, 2969, 2965, 2970, 2970, 2969]
ch0 : [2697, 2679, 2702, 2712, 2706, 2587, 2695, 2694, 2698, 2702]
ch1 : [3190, 3192, 3194, 3196, 3195, 3193, 3191, 3192, 3194, 3197]
ch2 : [380, 531, 220, 248, 265, 286, 335, 396, 221, 240]
ch3 : [2967, 2968, 2967, 2968, 2970, 2969, 2966, 2969, 2977, 2968]
ch0 : [2671, 2664, 2709, 2409, 2611, 2693, 2698, 2698, 2681, 2687]
ch1 : [3190, 3190, 3191, 3196, 3191, 3195, 3191, 3187, 3196, 3193]
ch2 : [268, 300, 340, 370, 481, 239, 282, 318, 365, 460]
ch3 : [2969, 2970, 2964, 2960, 2974, 2968, 2970, 2954, 2972, 2964]
ch0 : [2703, 2708, 2568, 2696, 2702, 2695, 2701, 2668, 2663, 2712]
ch1 : [3196, 3192, 3192, 3194, 3187, 3190, 3193, 3190, 3193, 3191]
ch2 : [232, 251, 275, 326, 405, 235, 272, 295, 344, 407]
ch3 : [2968, 2966, 2970, 2970, 2967, 2969, 2968, 2964, 2969, 2969]
ch0 : [2413, 2634, 2698, 2700, 2703, 2690, 2693, 2708, 2709, 2564]
ch1 : [3193, 3188, 3190, 3190, 3192, 3194, 3193, 3195, 3192, 3194]
ch2 : [217, 254, 321, 420, 254, 284, 341, 432, 242, 264]
ch3 : [2966, 2963, 2967, 2973, 2969, 2966, 2968, 2966, 2968, 2972]
ch0 : [2699, 2695, 2700, 2699, 2667, 2654, 2711, 2487, 2612, 2693]
ch1 : [3191, 3193, 3191, 3190, 3190, 3190, 3187, 3195, 3196, 3192]
ch2 : [348, 493, 291, 359, 485, 289, 349, 418, 298, 397]
ch3 : [2967, 2967, 2970, 2966, 2954, 2968, 2965, 2968, 2972, 2970]
ch0 : [2701, 2703, 2692, 2699, 2705, 2706, 2561, 2703, 2700, 2699]
ch1 : [3191, 3193, 3191, 3193, 3191, 3186, 3179, 3190, 3190, 3190]
ch2 : [343, 393, 435, 378, 509, 327, 375, 482, 363, 522]
ch3 : [2972, 2966, 2965, 2963, 2964, 2968, 2963, 2966, 2968, 2967]
ch0 : [2701, 2692, 2650, 2705, 2558, 2609, 2708, 2691, 2703, 2699]
ch1 : [3192, 3192, 3194, 3193, 3196, 3191, 3193, 3187, 3195, 3183]
ch2 : [364, 495, 359, 484, 329, 424, 366, 512, 428, 411]
ch3 : [2969, 2969, 2970, 2962, 2963, 2963, 2971, 2973, 2965, 2962]
ch0 : [2686, 2712, 2711, 2529, 2700, 2693, 2695, 2701, 2695, 2660]
ch1 : [3186, 3191, 3189, 3177, 3195, 3192, 3190, 3193, 3195, 3203]
ch2 : [478, 475, 441, 457, 472, 473, 472, 466, 467, 470]
ch3 : [2966, 2970, 2966, 2972, 2968, 2970, 2969, 2968, 2978, 2969]
ch0 : [2708, 2644, 2599, 2697, 2699, 2709, 2701, 2695, 2711, 2692]
ch1 : [3191, 3191, 3192, 3199, 3194, 3190, 3190, 3193, 3194, 3196]
ch2 : [451, 452, 483, 484, 475, 466, 469, 471, 467, 456]
ch3 : [2968, 2970, 2969, 2973, 2973, 2968, 2964, 2966, 2966, 2967]
ch0 : [2531, 2698, 2699, 2699, 2699, 2696, 2658, 2712, 2695, 2578]
ch1 : [3188, 3193, 3194, 3179, 3193, 3193, 3193, 3188, 3191, 3187]
ch2 : [472, 471, 478, 473, 474, 476, 474, 449, 462, 482]
ch3 : [2970, 2969, 2969, 2969, 2968, 2965, 2971, 2966, 2966, 2971]
ch0 : [2696, 2699, 2710, 2705, 2687, 2713, 2715, 2524, 2689, 2700]
ch1 : [3194, 3196, 3193, 3188, 3187, 3191, 3191, 3195, 3193, 3192]
ch2 : [482, 484, 483, 471, 474, 471, 464, 471, 486, 483]
ch3 : [2964, 2968, 2966, 2964, 2961, 2967, 2972, 2978, 2968, 2966]
ch0 : [2703, 2703, 2695, 2667, 2709, 2693, 2570, 2696, 2685, 2710]
ch1 : [3190, 3190, 3189, 3201, 3191, 3183, 3189, 3194, 3193, 3191]
ch2 : [484, 486, 480, 482, 463, 460, 487, 494, 490, 485]
ch3 : [2967, 2969, 2964, 2969, 2966, 2965, 2967, 2972, 2970, 2964]
ch0 : [2696, 2687, 2712, 2719, 2504, 2682, 2699, 2700, 2705, 2692]
ch1 : [3196, 3189, 3190, 3191, 3191, 3192, 3192, 3192, 3189, 3190]
ch2 : [480, 480, 479, 475, 472, 486, 483, 481, 476, 475]
ch3 : [2965, 2965, 2966, 2966, 2969, 2970, 2967, 2968, 2960, 2966]
ch0 : [2665, 2719, 2706, 2549, 2696, 2702, 2704, 2702, 2706, 2709]
ch1 : [3193, 3194, 3194, 3196, 3193, 3192, 3191, 3193, 3190, 3194]
ch2 : [476, 459, 461, 489, 492, 489, 474, 478, 484, 485]
ch3 : [2969, 2964, 2964, 2972, 2969, 2966, 2972, 2960, 2966, 2965]
ch0 : [2716, 2504, 2685, 2705, 2694, 2707, 2706, 2679, 2712, 2712]
ch1 : [3191, 3195, 3185, 3192, 3193, 3190, 3187, 3188, 3195, 3187]
ch2 : [470, 466, 487, 494, 490, 487, 478, 480, 464, 459]
ch3 : [2969, 2968, 2969, 2967, 2972, 2964, 2962, 2966, 2968, 2963]
ch0 : [2537, 2687, 2699, 2707, 2708, 2688, 2707, 2710, 2486, 2671]
ch1 : [3191, 3187, 3196, 3186, 3193, 3190, 3184, 3187, 3195, 3192]
ch2 : [487, 495, 495, 482, 468, 476, 473, 458, 460, 477]
ch3 : [2968, 2969, 2967, 2966, 2960, 2966, 2968, 2969, 2966, 2968]
ch0 : [2700, 2696, 2703, 2697, 2671, 2710, 2706, 2522, 2687, 2701]
ch1 : [3190, 3190, 3189, 3192, 3189, 3191, 3187, 3198, 3192, 3195]
ch2 : [482, 476, 479, 472, 471, 463, 464, 491, 484, 485]
ch3 : [2971, 2967, 2968, 2972, 2967, 2964, 2958, 2963, 2961, 2972]
ch0 : [2691, 2684, 2714, 2716, 2498, 2679, 2696, 2702, 2700, 2673]
ch1 : [3193, 3192, 3194, 3193, 3196, 3190, 3191, 3191, 3193, 3191]
ch2 : [472, 470, 466, 454, 486, 483, 482, 476, 467, 473]
ch3 : [2967, 2966, 2965, 2959, 2964, 2967, 2970, 2965, 2964, 2950]
ch0 : [2695, 2712, 2584, 2658, 2699, 2699, 2701, 2694, 2691, 2712]
ch1 : [3193, 3191, 3195, 3190, 3187, 3191, 3187, 3196, 3200, 3191]
ch2 : [475, 455, 456, 477, 480, 481, 468, 467, 468, 464]
ch3 : [2964, 2965, 2966, 2967, 2965, 2966, 2965, 2964, 2967, 2968]
ch0 : [2709, 2497, 2684, 2693, 2700, 2700, 2686, 2677, 2709, 2651]
ch1 : [3192, 3190, 3196, 3190, 3188, 3191, 3195, 3191, 3187, 3193]
ch2 : [447, 458, 482, 475, 473, 468, 470, 468, 454, 455]
ch3 : [2964, 2966, 2968, 2965, 2964, 2964, 2963, 2959, 2962, 2968]
ch0 : [2635, 2692, 2698, 2697, 2694, 2700, 2706, 2707, 2463, 2669]
ch1 : [3194, 3191, 3194, 3191, 3192, 3200, 3193, 3191, 3195, 3190]
ch2 : [484, 477, 473, 477, 467, 479, 464, 451, 472, 480]
ch3 : [2968, 2966, 2965, 2963, 2968, 2968, 2965, 2961, 2963, 2963]
ch0 : [2697, 2700, 2701, 2693, 2685, 2704, 2658, 2610, 2697, 2696]
ch1 : [3190, 3194, 3191, 3191, 3192, 3194, 3194, 3190, 3191, 3191]
ch2 : [473, 467, 468, 471, 467, 449, 455, 477, 467, 472]
ch3 : [2968, 2966, 2963, 2949, 2966, 2964, 2975, 2966, 2951, 2968]
ch0 : [2700, 2699, 2695, 2712, 2712, 2434, 2673, 2698, 2694, 2679]
ch1 : [3195, 3193, 3194, 3192, 3191, 3193, 3190, 3194, 3195, 3193]
ch2 : [471, 469, 469, 463, 438, 468, 481, 474, 466, 462]
ch3 : [2966, 2959, 2966, 2963, 2960, 2965, 2962, 2966, 2962, 2962]
ch0 : [2694, 2691, 2706, 2705, 2600, 2695, 2692, 2696, 2694, 2694]
ch1 : [3193, 3191, 3195, 3194, 3195, 3191, 3194, 3193, 3196, 3193]
ch2 : [457, 467, 445, 444, 475, 472, 467, 467, 466, 457]
ch3 : [2962, 2963, 2964, 2963, 2968, 2970, 2965, 2963, 2964, 2968]
ch0 : [2702, 2700, 2427, 2653, 2692, 2693, 2707, 2692, 2692, 2708]
ch1 : [3192, 3192, 3207, 3178, 3195, 3193, 3191, 3191, 3193, 3194]
ch2 : [460, 440, 449, 472, 475, 470, 460, 475, 464, 449]
ch3 : [2959, 2961, 2960, 2964, 2963, 2967, 2955, 2959, 2962, 2955]
ch0 : [2695, 2602, 2692, 2693, 2698, 2696, 2674, 2703, 2698, 2417]
ch1 : [3195, 3195, 3196, 3192, 3192, 3192, 3196, 3194, 3196, 3194]
ch2 : [443, 474, 474, 466, 464, 467, 471, 466, 438, 444]
ch3 : [2963, 2964, 2959, 2964, 2965, 2959, 2951, 2962, 2959, 2962]
ch0 : [2640, 2693, 2693, 2703, 2685, 2698, 2706, 2692, 2597, 2688]
ch1 : [3192, 3193, 3192, 3191, 3188, 3196, 3193, 3198, 3183, 3192]
ch2 : [468, 463, 465, 460, 462, 463, 444, 443, 461, 467]
ch3 : [2970, 2958, 2960, 2955, 2960, 2958, 2959, 2958, 2960, 2958]
ch0 : [2693, 2695, 2698, 2683, 2697, 2699, 2394, 2615, 2693, 2690]
ch1 : [3198, 3191, 3194, 3191, 3191, 3190, 3193, 3196, 3193, 3192]
ch2 : [467, 466, 461, 459, 465, 436, 444, 471, 471, 459]
ch3 : [2961, 2958, 2957, 2959, 2959, 2956, 2956, 2962, 2958, 2958]
ch0 : [2691, 2687, 2682, 2706, 2702, 2579, 2709, 2692, 2696, 2697]
ch1 : [3190, 3188, 3191, 3188, 3195, 3183, 3192, 3194, 3192, 3194]
ch2 : [457, 466, 471, 456, 444, 464, 473, 467, 471, 461]
ch3 : [2954, 2956, 2958, 2953, 2958, 2960, 2954, 2956, 2957, 2955]
ch0 : [2681, 2673, 2708, 2381, 2625, 2692, 2688, 2696, 2684, 2695]
ch1 : [3191, 3196, 3192, 3195, 3191, 3193, 3192, 3194, 3193, 3190]
ch2 : [463, 469, 446, 452, 475, 470, 466, 461, 461, 465]
ch3 : [2955, 2954, 2956, 2955, 2960, 2951, 2957, 2953, 2953, 2951]
ch0 : [2711, 2705, 2568, 2685, 2689, 2697, 2696, 2679, 2652, 2708]
ch1 : [3192, 3194, 3193, 3183, 3189, 3193, 3195, 3190, 3192, 3191]
ch2 : [454, 443, 457, 479, 470, 469, 463, 463, 461, 455]
ch3 : [2953, 2957, 2953, 2960, 2956, 2962, 2956, 2955, 2957, 2955]
ch0 : [2406, 2625, 2703, 2689, 2695, 2673, 2699, 2706, 2705, 2556]
ch1 : [3195, 3191, 3191, 3193, 3192, 3193, 3193, 3196, 3193, 3190]
ch2 : [446, 471, 470, 467, 466, 466, 467, 461, 448, 458]
ch3 : [2951, 2957, 2959, 2960, 2958, 2957, 2954, 2957, 2959, 2960]
ch0 : [2680, 2693, 2696, 2696, 2668, 2641, 2705, 2484, 2607, 2692]
ch1 : [3185, 3192, 3195, 3193, 3188, 3192, 3189, 3188, 3193, 3192]
ch2 : [475, 469, 467, 464, 464, 464, 445, 456, 476, 477]
ch3 : [2959, 2964, 2959, 2961, 2952, 2962, 2955, 2954, 2959, 2961]
ch0 : [2692, 2698, 2693, 2697, 2708, 2708, 2549, 2686, 2696, 2694]
ch1 : [3195, 3192, 3191, 3199, 3194, 3193, 3192, 3190, 3189, 3202]
ch2 : [470, 466, 465, 465, 462, 451, 462, 489, 472, 470]
ch3 : [2962, 2961, 2956, 2957, 2960, 2959, 2962, 2962, 2955, 2961]
ch0 : [2687, 2667, 2656, 2707, 2516, 2612, 2692, 2693, 2707, 2680]
ch1 : [3191, 3194, 3191, 3194, 3199, 3190, 3202, 3191, 3192, 3190]
ch2 : [468, 468, 468, 448, 447, 481, 472, 472, 465, 465]
ch3 : [2956, 2962, 2961, 2960, 2956, 2960, 2962, 2963, 2944, 2961]
ch0 : [2694, 2707, 2709, 2535, 2690, 2695, 2697, 2699, 2678, 2654]
ch1 : [3191, 3191, 3195, 3197, 3181, 3193, 3191, 3193, 3197, 3199]
ch2 : [467, 462, 450, 462, 477, 474, 470, 467, 466, 469]
ch3 : [2955, 2964, 2964, 2965, 2961, 2962, 2959, 2961, 2966, 2965]
ch0 : [2703, 2615, 2587, 2693, 2693, 2701, 2684, 2696, 2703, 2705]
ch1 : [3193, 3190, 3184, 3191, 3187, 3195, 3197, 3189, 3200, 3190]
ch2 : [453, 443, 485, 478, 478, 465, 467, 462, 470, 458]
ch3 : [2961, 2964, 2962, 2967, 2964, 2954, 2960, 2962, 2961, 2968]
ch0 : [2513, 2678, 2694, 2693, 2693, 2672, 2644, 2706, 2665, 2585]
ch1 : [3192, 3196, 3174, 3186, 3192, 3193, 3193, 3194, 3190, 3191]
ch2 : [465, 477, 478, 475, 472, 471, 471, 457, 460, 481]
ch3 : [2965, 2954, 2958, 2964, 2951, 2959, 2964, 2962, 2963, 2967]
ch0 : [2687, 2694, 2700, 2690, 2694, 2703, 2706, 2510, 2679, 2696]
ch1 : [3188, 3200, 3192, 3190, 3191, 3194, 3193, 3192, 3187, 3195]
ch2 : [488, 485, 473, 476, 476, 474, 462, 469, 485, 484]
ch3 : [2963, 2965, 2963, 2959, 2961, 2974, 2963, 2965, 2968, 2961]
ch0 : [2696, 2694, 2696, 2656, 2704, 2707, 2552, 2690, 2697, 2700]
ch1 : [3192, 3193, 3196, 3192, 3190, 3197, 3190, 3195, 3192, 3187]
ch2 : [479, 481, 476, 479, 460, 459, 486, 494, 489, 483]
ch3 : [2963, 2962, 2964, 2962, 2965, 2959, 2951, 2964, 2962, 2962]
ch0 : [2656, 2713, 2665, 2555, 2697, 2694, 2702, 2701, 2698, 2712]
ch1 : [3191, 3204, 3191, 3192, 3194, 3193, 3196, 3192, 3196, 3189]
ch2 : [485, 466, 450, 480, 502, 492, 488, 482, 484, 492]
ch3 : [2956, 2962, 2964, 2969, 2967, 2968, 2962, 2962, 2961, 2963]
ch0 : [2709, 2495, 2676, 2692, 2701, 2696, 2684, 2670, 2710, 2707]
ch1 : [3188, 3198, 3197, 3196, 3190, 3192, 3190, 3191, 3194, 3189]
ch2 : [471, 475, 496, 495, 494, 486, 494, 490, 472, 468]
ch3 : [2964, 2968, 2968, 2964, 2965, 2964, 2963, 2973, 2964, 2961]
ch0 : [2546, 2681, 2703, 2699, 2700, 2684, 2704, 2712, 2486, 2672]
ch1 : [3188, 3189, 3192, 3188, 3195, 3203, 3198, 3191, 3192, 3192]
ch2 : [484, 499, 495, 491, 484, 490, 487, 480, 473, 499]
ch3 : [2964, 2960, 2967, 2966, 2968, 2962, 2964, 2966, 2969, 2968]
ch0 : [2695, 2697, 2693, 2697, 2672, 2706, 2710, 2526, 2670, 2694]
ch1 : [3184, 3187, 3192, 3190, 3195, 3190, 3188, 3194, 3187, 3194]
ch2 : [496, 493, 491, 492, 491, 479, 467, 504, 500, 497]
ch3 : [2968, 2969, 2969, 2965, 2962, 2972, 2963, 2966, 2971, 2965]
ch0 : [2694, 2700, 2684, 2700, 2708, 2503, 2654, 2691, 2693, 2700]
ch1 : [3191, 3193, 3192, 3192, 3195, 3202, 3187, 3189, 3191, 3196]
ch2 : [505, 491, 490, 496, 476, 478, 499, 502, 498, 495]
ch3 : [2968, 2966, 2968, 2965, 2964, 2970, 2968, 2965, 2964, 2960]
ch0 : [2690, 2674, 2708, 2708, 2510, 2683, 2689, 2705, 2702, 2679]
ch1 : [3192, 3193, 3192, 3193, 3193, 3190, 3188, 3196, 3193, 3183]
ch2 : [493, 496, 482, 467, 495, 512, 508, 498, 493, 496]
ch3 : [2969, 2965, 2966, 2967, 2967, 2970, 2967, 2967, 2962, 2964]
ch0 : [2698, 2716, 2569, 2646, 2701, 2697, 2701, 2681, 2691, 2710]
ch1 : [3193, 3193, 3191, 3189, 3189, 3194, 3190, 3187, 3192, 3195]
ch2 : [496, 476, 484, 503, 506, 505, 499, 500, 498, 489]
ch3 : [2964, 2968, 2964, 2973, 2967, 2966, 2965, 2963, 2966, 2962]
ch0 : [2702, 2499, 2685, 2698, 2700, 2705, 2685, 2693, 2709, 2662]
ch1 : [3189, 3196, 3191, 3191, 3192, 3191, 3193, 3181, 3193, 3190]
ch2 : [478, 498, 508, 513, 507, 504, 502, 504, 490, 485]
ch3 : [2976, 2961, 2970, 2968, 2966, 2963, 2964, 2964, 2963, 2968]
ch0 : [2637, 2698, 2692, 2694, 2687, 2698, 2708, 2679, 2463, 2681]
ch1 : [3189, 3195, 3193, 3190, 3191, 3191, 3200, 3193, 3196, 3201]
ch2 : [517, 512, 510, 502, 503, 504, 503, 483, 503, 515]
ch3 : [2970, 2970, 2969, 2962, 2966, 2969, 2968, 2965, 2966, 2975]
ch0 : [2694, 2698, 2700, 2689, 2683, 2706, 2697, 2630, 2697, 2698]
ch1 : [3195, 3191, 3192, 3191, 3193, 3183, 3192, 3193, 3194, 3193]
ch2 : [512, 504, 499, 506, 508, 488, 489, 510, 514, 517]
ch3 : [2972, 2967, 2964, 2967, 2968, 2967, 2967, 2970, 2976, 2969]
ch0 : [2689, 2687, 2712, 2713, 2628, 2700, 2691, 2698, 2703, 2694]
ch1 : [3192, 3188, 3193, 3191, 3197, 3191, 3194, 3186, 3195, 3190]
ch2 : [510, 515, 497, 493, 515, 521, 518, 516, 514, 517]
ch3 : [2961, 2968, 2966, 2968, 2968, 2969, 2972, 2973, 2962, 2967]
ch0 : [2710, 2679, 2439, 2666, 2700, 2697, 2685, 2697, 2683, 2708]
ch1 : [3194, 3186, 3193, 3196, 3192, 3191, 3187, 3192, 3192, 3192]
ch2 : [512, 495, 510, 530, 525, 523, 522, 515, 520, 506]
ch3 : [2967, 2963, 2966, 2974, 2970, 2968, 2963, 2963, 2970, 2964]
ch0 : [2710, 2623, 2699, 2695, 2700, 2700, 2693, 2709, 2712, 2424]
ch1 : [3200, 3192, 3196, 3194, 3194, 3188, 3193, 3200, 3191, 3193]
ch2 : [508, 522, 527, 527, 524, 519, 522, 513, 509, 520]
ch3 : [2972, 2970, 2966, 2969, 2965, 2964, 2966, 2968, 2965, 2966]
ch0 : [2660, 2697, 2697, 2704, 2695, 2686, 2707, 2704, 2598, 2698]
ch1 : [3191, 3190, 3192, 3197, 3190, 3189, 3187, 3192, 3194, 3193]
ch2 : [529, 532, 513, 524, 528, 524, 514, 510, 532, 538]
ch3 : [2968, 2969, 2968, 2969, 2964, 2965, 2965, 2972, 2970, 2968]
ch0 : [2692, 2699, 2698, 2685, 2707, 2709, 2407, 2658, 2697, 2694]
ch1 : [3191, 3193, 3189, 3187, 3192, 3193, 3194, 3195, 3202, 3196]
ch2 : [534, 532, 534, 533, 530, 512, 519, 544, 537, 534]
ch3 : [2970, 2969, 2960, 2966, 2967, 2967, 2966, 2969, 2966, 2966]
ch0 : [2703, 2696, 2687, 2715, 2707, 2585, 2697, 2695, 2698, 2701]
ch1 : [3193, 3192, 3188, 3192, 3195, 3192, 3194, 3200, 3193, 3193]
ch2 : [528, 534, 532, 521, 516, 537, 540, 539, 544, 535]
ch3 : [2962, 2965, 2966, 2966, 2968, 2982, 2971, 2969, 2966, 2967]
ch0 : [2679, 2701, 2710, 2399, 2634, 2691, 2697, 2695, 2702, 2689]
ch1 : [3193, 3196, 3185, 3187, 3190, 3192, 3191, 3192, 3195, 3187]
ch2 : [531, 537, 516, 525, 548, 546, 544, 535, 536, 537]
ch3 : [2969, 2965, 2967, 2965, 2970, 2972, 2970, 2965, 2963, 2962]
ch0 : [2707, 2707, 2580, 2689, 2696, 2699, 2700, 2687, 2667, 2712]
ch1 : [3196, 3189, 3194, 3191, 3192, 3193, 3187, 3185, 3188, 3187]
ch2 : [522, 526, 537, 546, 543, 541, 548, 540, 544, 522]
ch3 : [2968, 2976, 2971, 2972, 2970, 2968, 2969, 2965, 2967, 2964]
ch0 : [2388, 2643, 2689, 2706, 2703, 2692, 2692, 2713, 2706, 2570]
ch1 : [3193, 3192, 3191, 3191, 3191, 3193, 3196, 3192, 3193, 3191]
ch2 : [523, 549, 553, 544, 541, 540, 544, 532, 527, 545]
ch3 : [2969, 2968, 2970, 2972, 2969, 2968, 2968, 2966, 2968, 2971]
ch0 : [2691, 2697, 2698, 2698, 2686, 2660, 2666, 2437, 2640, 2697]
ch1 : [3191, 3192, 3193, 3193, 3190, 3190, 3193, 3197, 3195, 3193]
ch2 : [546, 541, 547, 548, 543, 547, 527, 530, 548, 553]
ch3 : [2980, 2964, 2968, 2964, 2967, 2967, 2977, 2968, 2972, 2970]
ch0 : [2701, 2680, 2666, 2713, 2507, 2601, 2692, 2696, 2702, 2694]
ch1 : [3189, 3189, 3191, 3193, 3192, 3193, 3193, 3194, 3195, 3190]
ch2 : [544, 546, 548, 525, 536, 555, 556, 554, 547, 551]
ch3 : [2966, 2969, 2968, 2965, 2964, 2969, 2970, 2971, 2963, 2967]
ch0 : [2697, 2716, 2696, 2552, 2687, 2697, 2697, 2701, 2688, 2653]
ch1 : [3188, 3195, 3193, 3192, 3189, 3192, 3192, 3200, 3192, 3192]
ch2 : [549, 544, 528, 545, 554, 556, 553, 552, 550, 553]
ch3 : [2972, 2963, 2972, 2970, 2968, 2969, 2968, 2968, 2965, 2969]
ch0 : [2701, 2555, 2601, 2700, 2679, 2702, 2699, 2699, 2713, 2711]
ch1 : [3195, 3191, 3191, 3195, 3196, 3180, 3195, 3190, 3192, 3193]
ch2 : [551, 536, 547, 562, 557, 558, 557, 552, 554, 538]
ch3 : [2967, 2967, 2969, 2971, 2976, 2967, 2967, 2962, 2971, 2968]
ch0 : [2542, 2694, 2695, 2702, 2702, 2689, 2654, 2704, 2638, 2590]
ch1 : [3193, 3189, 3192, 3196, 3196, 3193, 3195, 3190, 3205, 3190]
ch2 : [556, 562, 561, 562, 560, 560, 559, 546, 541, 552]
ch3 : [2980, 2956, 2969, 2970, 2968, 2972, 2965, 2965, 2964, 2972]
ch0 : [2693, 2691, 2700, 2697, 2698, 2712, 2713, 2522, 2683, 2701]
ch1 : [3186, 3187, 3193, 3192, 3191, 3196, 3192, 3189, 3190, 3191]
ch2 : [571, 566, 560, 558, 565, 557, 546, 553, 568, 566]
ch3 : [2973, 2969, 2966, 2966, 2968, 2966, 2970, 2967, 2969, 2968]
ch0 : [2692, 2695, 2686, 2662, 2710, 2682, 2579, 2695, 2693, 2702]
ch1 : [3196, 3193, 3190, 3190, 3192, 3184, 3191, 3191, 3196, 3193]
ch2 : [564, 563, 559, 561, 550, 542, 571, 570, 568, 563]
ch3 : [2968, 2969, 2965, 2964, 2966, 2964, 2968, 2970, 2968, 2968]
ch0 : [2695, 2696, 2709, 2710, 2503, 2690, 2697, 2695, 2700, 2679]
ch1 : [3193, 3194, 3189, 3196, 3191, 3185, 3187, 3200, 3188, 3193]
ch2 : [562, 564, 561, 547, 559, 565, 569, 568, 567, 566]
ch3 : [2964, 2967, 2967, 2972, 2967, 2970, 2970, 2969, 2970, 2970]
ch0 : [2653, 2708, 2715, 2559, 2684, 2696, 2706, 2701, 2695, 2712]
ch1 : [3193, 3192, 3194, 3190, 3191, 3195, 3195, 3191, 3195, 3192]
ch2 : [570, 554, 546, 569, 577, 573, 567, 565, 568, 566]
ch3 : [2968, 2966, 2967, 2971, 2975, 2973, 2976, 2959, 2973, 2966]
ch0 : [2711, 2515, 2685, 2694, 2697, 2699, 2687, 2671, 2719, 2710]
ch1 : [3193, 3193, 3190, 3178, 3191, 3191, 3192, 3200, 3192, 3189]
ch2 : [557, 561, 574, 576, 569, 570, 571, 573, 560, 550]
ch3 : [2969, 2972, 2972, 2968, 2967, 2962, 2966, 2968, 2978, 2968]
ch0 : [2557, 2696, 2700, 2714, 2698, 2697, 2711, 2706, 2498, 2686]
ch1 : [3195, 3188, 3190, 3183, 3191, 3187, 3193, 3190, 3195, 3189]
ch2 : [577, 584, 583, 576, 572, 585, 587, 562, 580, 582]
ch3 : [2967, 2963, 2967, 2964, 2967, 2969, 2964, 2972, 2966, 2969]
ch0 : [2693, 2700, 2705, 2700, 2682, 2712, 2697, 2546, 2698, 2698]
ch1 : [3192, 3191, 3192, 3195, 3190, 3188, 3192, 3195, 3190, 3194]
ch2 : [584, 585, 576, 578, 578, 563, 563, 578, 582, 585]
ch3 : [2967, 2970, 2966, 2961, 2965, 2968, 2964, 2968, 2970, 2962]
ch0 : [2706, 2698, 2695, 2711, 2714, 2484, 2667, 2698, 2696, 2705]
ch1 : [3192, 3191, 3192, 3194, 3190, 3193, 3193, 3193, 3195, 3192]
ch2 : [568, 577, 586, 579, 566, 570, 588, 591, 590, 591]
ch3 : [2969, 2964, 2954, 2978, 2966, 2970, 2967, 2969, 2964, 2963]
ch0 : [2700, 2666, 2712, 2707, 2526, 2696, 2697, 2704, 2700, 2675]
ch1 : [3192, 3192, 3195, 3191, 3188, 3187, 3190, 3190, 3195, 3188]
ch2 : [589, 598, 576, 567, 587, 600, 594, 590, 588, 590]
ch3 : [2959, 2967, 2964, 2966, 2962, 2969, 2968, 2969, 2963, 2965]
ch0 : [2701, 2710, 2495, 2655, 2696, 2706, 2699, 2694, 2662, 2706]
ch1 : [3193, 3187, 3204, 3192, 3193, 3193, 3193, 3195, 3193, 3190]
ch2 : [592, 576, 576, 593, 596, 593, 595, 588, 593, 589]
ch3 : [2961, 2965, 2968, 2970, 2964, 2967, 2968, 2966, 2965, 2966]
ch0 : [2694, 2514, 2683, 2689, 2702, 2704, 2684, 2704, 2707, 2535]
ch1 : [3189, 3192, 3178, 3188, 3190, 3193, 3192, 3190, 3187, 3187]
ch2 : [572, 591, 601, 599, 597, 589, 590, 596, 578, 578]
ch3 : [2964, 2967, 2970, 2965, 2965, 2969, 2965, 2969, 2965, 2969]
ch0 : [2671, 2696, 2699, 2700, 2680, 2697, 2707, 2710, 2525, 2694]
ch1 : [3187, 3190, 3192, 3191, 3191, 3191, 3194, 3192, 3192, 3192]
ch2 : [593, 596, 596, 593, 592, 598, 581, 576, 588, 601]
ch3 : [2968, 2969, 2968, 2965, 2961, 2962, 2965, 2966, 2966, 2966]
ch0 : [2696, 2700, 2705, 2688, 2705, 2713, 2580, 2647, 2701, 2696]
ch1 : [3204, 3193, 3189, 3191, 3192, 3197, 3196, 3193, 3191, 3195]
ch2 : [587, 596, 588, 589, 586, 570, 571, 592, 594, 593]
ch3 : [2963, 2967, 2964, 2965, 2963, 2965, 2969, 2966, 2967, 2965]
ch0 : [2704, 2699, 2693, 2711, 2713, 2486, 2661, 2696, 2700, 2687]
ch1 : [3192, 3194, 3194, 3188, 3191, 3192, 3193, 3190, 3194, 3190]
ch2 : [584, 592, 601, 579, 566, 585, 593, 596, 590, 584]
ch3 : [2960, 2959, 2965, 2959, 2961, 2967, 2953, 2972, 2969, 2963]
ch0 : [2690, 2687, 2712, 2633, 2642, 2700, 2691, 2699, 2693, 2686]
ch1 : [3192, 3185, 3192, 3189, 3191, 3191, 3190, 3191, 3193, 3196]
ch2 : [580, 587, 571, 572, 590, 594, 578, 584, 581, 585]
ch3 : [2962, 2965, 2964, 2952, 2972, 2963, 2967, 2967, 2966, 2965]
ch0 : [2710, 2692, 2490, 2687, 2694, 2702, 2709, 2677, 2688, 2707]
ch1 : [3188, 3193, 3195, 3183, 3193, 3187, 3191, 3189, 3191, 3197]
ch2 : [582, 572, 581, 593, 594, 586, 588, 590, 583, 571]
ch3 : [2963, 2962, 2963, 2968, 2960, 2963, 2960, 2960, 2958, 2961]
ch0 : [2690, 2695, 2701, 2699, 2698, 2679, 2708, 2701, 2628, 2690]
ch1 : [3193, 3194, 3192, 3189, 3186, 3193, 3191, 3193, 3188, 3194]
ch2 : [596, 597, 588, 579, 585, 585, 565, 561, 589, 575]
ch3 : [2968, 2962, 2962, 2960, 2960, 2962, 2964, 2975, 2967, 2969]
ch0 : [2710, 2697, 2693, 2679, 2708, 2711, 2446, 2647, 2692, 2694]
ch1 : [3193, 3193, 3189, 3193, 3193, 3192, 3195, 3190, 3191, 3193]
ch2 : [583, 581, 577, 576, 571, 557, 566, 582, 573, 580]
ch3 : [2965, 2962, 2957, 2965, 2963, 2972, 2962, 2949, 2970, 2961]
ch0 : [2698, 2700, 2673, 2707, 2682, 2628, 2691, 2695, 2703, 2696]
ch1 : [3194, 3186, 3191, 3183, 3190, 3191, 3199, 3189, 3191, 3192]
ch2 : [571, 571, 571, 560, 559, 580, 584, 576, 576, 568]
ch3 : [2966, 2961, 2961, 2964, 2964, 2963, 2964, 2967, 2962, 2963]
ch0 : [2691, 2704, 2698, 2434, 2650, 2704, 2694, 2695, 2687, 2677]
ch1 : [3191, 3191, 3195, 3190, 3196, 3197, 3183, 3193, 3193, 3192]
ch2 : [570, 573, 558, 563, 584, 577, 572, 563, 573, 566]
ch3 : [2968, 2962, 2961, 2958, 2964, 2969, 2961, 2959, 2958, 2960]
ch0 : [2704, 2704, 2607, 2688, 2689, 2692, 2698, 2672, 2706, 2699]
ch1 : [3191, 3191, 3190, 3200, 3194, 3193, 3190, 3189, 3195, 3190]
ch2 : [549, 550, 568, 575, 568, 565, 562, 560, 560, 546]
ch3 : [2958, 2961, 2965, 2961, 2961, 2959, 2960, 2973, 2958, 2959]
ch0 : [2400, 2635, 2686, 2692, 2694, 2676, 2673, 2701, 2697, 2599]
ch1 : [3193, 3189, 3191, 3200, 3187, 3191, 3193, 3194, 3193, 3190]
ch2 : [554, 569, 570, 564, 558, 564, 559, 545, 541, 560]
ch3 : [2957, 2960, 2967, 2963, 2954, 2958, 2957, 2959, 2957, 2960]
ch0 : [2678, 2692, 2692, 2694, 2662, 2698, 2702, 2391, 2625, 2693]
ch1 : [3191, 3189, 3190, 3191, 3187, 3195, 3193, 3196, 3195, 3190]
ch2 : [562, 562, 564, 564, 556, 558, 538, 551, 562, 564]
ch3 : [2964, 2961, 2957, 2956, 2960, 2951, 2956, 2958, 2961, 2961]
ch0 : [2684, 2692, 2682, 2669, 2706, 2705, 2597, 2693, 2688, 2694]
ch1 : [3193, 3189, 3191, 3185, 3191, 3191, 3192, 3191, 3192, 3195]
ch2 : [567, 559, 556, 560, 549, 545, 554, 564, 560, 556]
ch3 : [2959, 2959, 2957, 2957, 2953, 2958, 2958, 2960, 2956, 2952]
ch0 : [2695, 2684, 2696, 2700, 2385, 2641, 2687, 2689, 2699, 2675]
ch1 : [3197, 3191, 3193, 3185, 3193, 3188, 3191, 3193, 3193, 3194]
ch2 : [560, 557, 549, 533, 541, 561, 561, 557, 550, 548]
ch3 : [2937, 2953, 2953, 2953, 2953, 2952, 2955, 2957, 2949, 2950]
ch0 : [2684, 2703, 2703, 2595, 2691, 2691, 2693, 2700, 2672, 2657]
ch1 : [3185, 3191, 3189, 3198, 3194, 3180, 3192, 3193, 3196, 3189]
ch2 : [548, 532, 538, 551, 560, 560, 557, 554, 546, 557]
ch3 : [2948, 2949, 2958, 2956, 2953, 2951, 2947, 2953, 2949, 2950]
ch0 : [2701, 2401, 2633, 2684, 2690, 2693, 2669, 2702, 2702, 2700]
ch1 : [3193, 3197, 3192, 3188, 3206, 3198, 3187, 3193, 3191, 3193]
ch2 : [535, 540, 560, 559, 566, 551, 549, 547, 546, 544]
ch3 : [2949, 2949, 2950, 2952, 2950, 2952, 2946, 2948, 2947, 2950]
ch0 : [2571, 2679, 2709, 2691, 2690, 2663, 2647, 2706, 2441, 2622]
ch1 : [3191, 3192, 3197, 3191, 3192, 3193, 3189, 3192, 3194, 3192]
ch2 : [554, 546, 545, 555, 553, 554, 554, 528, 536, 553]
ch3 : [2952, 2950, 2943, 2947, 2945, 2950, 2949, 2948, 2952, 2948]
ch0 : [2705, 2700, 2695, 2689, 2708, 2707, 2689, 2563, 2688, 2698]
ch1 : [3193, 3191, 3194, 3192, 3191, 3191, 3200, 3191, 3195, 3190]
ch2 : [562, 553, 552, 541, 550, 539, 533, 549, 555, 553]
ch3 : [2952, 2952, 2946, 2946, 2942, 2947, 2948, 2952, 2951, 2948]
ch0 : [2697, 2695, 2667, 2653, 2705, 2495, 2600, 2696, 2692, 2704]
ch1 : [3191, 3186, 3191, 3191, 3191, 3194, 3193, 3193, 3180, 3194]
ch2 : [549, 546, 545, 545, 529, 530, 558, 555, 552, 542]
ch3 : [2949, 2945, 2937, 2947, 2943, 2948, 2953, 2951, 2951, 2949]
ch0 : [2692, 2696, 2709, 2703, 2542, 2690, 2694, 2695, 2697, 2689]
ch1 : [3190, 3187, 3193, 3192, 3183, 3191, 3191, 3200, 3187, 3193]
ch2 : [542, 545, 538, 532, 541, 553, 548, 542, 545, 543]
ch3 : [2948, 2948, 2950, 2952, 2952, 2950, 2951, 2946, 2948, 2948]
ch0 : [2641, 2703, 2549, 2583, 2690, 2688, 2717, 2690, 2695, 2707]
ch1 : [3192, 3191, 3187, 3191, 3195, 3190, 3191, 3193, 3193, 3190]
ch2 : [545, 528, 526, 546, 547, 552, 540, 537, 544, 541]
ch3 : [2953, 2946, 2948, 2955, 2950, 2964, 2947, 2947, 2948, 2948]
ch0 : [2709, 2523, 2690, 2690, 2695, 2697, 2692, 2652, 2705, 2664]
ch1 : [3192, 3189, 3195, 3192, 3193, 3195, 3195, 3187, 3193, 3196]
ch2 : [528, 544, 546, 548, 548, 547, 543, 545, 528, 525]
ch3 : [2952, 2954, 2952, 2952, 2952, 2953, 2950, 2941, 2952, 2953]
ch0 : [2594, 2687, 2694, 2697, 2695, 2695, 2707, 2707, 2513, 2676]
ch1 : [3192, 3182, 3192, 3200, 3193, 3194, 3189, 3190, 3190, 3195]
ch2 : [549, 552, 545, 542, 538, 541, 536, 520, 536, 547]
ch3 : [2953, 2956, 2955, 2952, 2949, 2950, 2951, 2947, 2950, 2956]
ch0 : [2694, 2696, 2695, 2683, 2656, 2708, 2689, 2578, 2694, 2693]
ch1 : [3192, 3195, 3183, 3191, 3187, 3193, 3192, 3188, 3191, 3187]
ch2 : [540, 543, 536, 540, 539, 525, 523, 544, 551, 544]
ch3 : [2947, 2956, 2943, 2952, 2956, 2948, 2952, 2962, 2956, 2960]
ch0 : [2700, 2700, 2704, 2708, 2707, 2498, 2678, 2694, 2696, 2699]
ch1 : [3200, 3189, 3188, 3193, 3191, 3192, 3189, 3193, 3194, 3194]
ch2 : [538, 537, 540, 537, 522, 528, 547, 547, 548, 544]
ch3 : [2951, 2960, 2952, 2953, 2952, 2954, 2955, 2956, 2957, 2953]
ch0 : [2706, 2703, 2495, 2684, 2697, 2704, 2705, 2685, 2668, 2709]
ch1 : [3192, 3194, 3196, 3194, 3199, 3191, 3195, 3193, 3193, 3191]
ch2 : [538, 529, 540, 553, 553, 547, 542, 545, 547, 531]
ch3 : [2953, 2954, 2964, 2957, 2954, 2951, 2952, 2954, 2954, 2954]
ch0 : [2692, 2547, 2690, 2695, 2694, 2701, 2691, 2704, 2709, 2489]
ch1 : [3191, 3191, 3192, 3192, 3188, 3188, 3193, 3190, 3190, 3193]
ch2 : [525, 544, 552, 550, 548, 542, 545, 554, 527, 536]
ch3 : [2947, 2955, 2960, 2955, 2942, 2951, 2954, 2954, 2953, 2953]
ch0 : [2662, 2700, 2698, 2700, 2696, 2663, 2711, 2700, 2543, 2677]
ch1 : [3190, 3193, 3203, 3191, 3189, 3192, 3192, 3191, 3191, 3193]
ch2 : [549, 550, 548, 564, 546, 543, 534, 528, 552, 557]
ch3 : [2960, 2956, 2958, 2950, 2954, 2954, 2953, 2955, 2958, 2962]
ch0 : [2691, 2712, 2700, 2684, 2694, 2713, 2477, 2673, 2695, 2693]
ch1 : [3192, 3191, 3196, 3193, 3195, 3192, 3193, 3190, 3189, 3190]
ch2 : [552, 550, 546, 547, 549, 533, 526, 557, 550, 569]
ch3 : [2959, 2945, 2955, 2955, 2952, 2955, 2962, 2959, 2951, 2958]
ch0 : [2701, 2679, 2687, 2712, 2706, 2518, 2684, 2701, 2697, 2701]
ch1 : [3190, 3191, 3189, 3203, 3196, 3193, 3195, 3191, 3190, 3194]
ch2 : [550, 547, 542, 537, 528, 549, 553, 553, 549, 547]
ch3 : [2956, 2959, 2957, 2960, 2958, 2958, 2961, 2961, 2958, 2957]
ch0 : [2692, 2702, 2709, 2534, 2669, 2698, 2697, 2700, 2699, 2676]
ch1 : [3196, 3192, 3193, 3190, 3191, 3194, 3193, 3195, 3192, 3191]
ch2 : [548, 551, 534, 540, 555, 558, 554, 552, 552, 546]
ch3 : [2954, 2959, 2958, 2964, 2953, 2961, 2959, 2958, 2955, 2962]
ch0 : [2713, 2707, 2521, 2683, 2681, 2702, 2705, 2686, 2699, 2716]
ch1 : [3195, 3194, 3189, 3196, 3193, 3194, 3192, 3191, 3193, 3191]
ch2 : [541, 536, 557, 560, 558, 553, 552, 555, 552, 525]
ch3 : [2959, 2958, 2961, 2969, 2966, 2955, 2955, 2959, 2958, 2961]
ch0 : [2617, 2650, 2697, 2702, 2697, 2705, 2703, 2713, 2645, 2499]
ch1 : [3191, 3192, 3191, 3196, 3196, 3193, 3191, 3194, 3193, 3192]
ch2 : [538, 558, 555, 558, 556, 555, 552, 539, 531, 552]
ch3 : [2966, 2958, 2959, 2958, 2953, 2959, 2955, 2961, 2959, 2960]
ch0 : [2686, 2700, 2708, 2700, 2700, 2699, 2714, 2648, 2639, 2700]
ch1 : [3193, 3204, 3193, 3192, 3193, 3188, 3194, 3192, 3194, 3193]
ch2 : [561, 560, 559, 548, 555, 554, 539, 539, 558, 562]
ch3 : [2966, 2966, 2960, 2960, 2960, 2959, 2960, 2961, 2965, 2954]
ch0 : [2707, 2701, 2704, 2690, 2705, 2710, 2472, 2675, 2700, 2702]
ch1 : [3188, 3188, 3195, 3192, 3189, 3190, 3193, 3193, 3193, 3195]
ch2 : [559, 559, 566, 555, 549, 541, 544, 567, 564, 560]
ch3 : [2962, 2960, 2965, 2962, 2959, 2959, 2965, 2965, 2965, 2964]
ch0 : [2707, 2687, 2699, 2718, 2694, 2635, 2697, 2700, 2705, 2698]
ch1 : [3193, 3191, 3189, 3192, 3182, 3196, 3193, 3194, 3196, 3192]
ch2 : [557, 553, 558, 547, 544, 560, 565, 554, 560, 554]
ch3 : [2962, 2964, 2955, 2961, 2965, 2963, 2961, 2964, 2963, 2962]
ch0 : [2705, 2710, 2707, 2463, 2678, 2699, 2694, 2705, 2707, 2685]
ch1 : [3195, 3192, 3191, 3194, 3192, 3193, 3195, 3193, 3192, 3191]
ch2 : [560, 552, 541, 552, 568, 559, 564, 558, 554, 564]
ch3 : [2963, 2963, 2962, 2960, 2965, 2965, 2970, 2959, 2962, 2963]
ch0 : [2710, 2712, 2628, 2685, 2698, 2694, 2704, 2701, 2715, 2645]
ch1 : [3185, 3192, 3192, 3191, 3192, 3189, 3191, 3193, 3191, 3180]
ch2 : [548, 545, 563, 584, 565, 560, 563, 561, 558, 544]
ch3 : [2963, 2964, 2965, 2967, 2962, 2965, 2968, 2965, 2967, 2962]
ch0 : [2440, 2663, 2698, 2699, 2702, 2699, 2677, 2708, 2695, 2605]
ch1 : [3191, 3191, 3191, 3195, 3191, 3191, 3188, 3186, 3196, 3193]
ch2 : [558, 553, 569, 560, 548, 558, 559, 546, 542, 565]
ch3 : [2962, 2964, 2968, 2963, 2962, 2962, 2964, 2961, 2966, 2967]
ch0 : [2704, 2697, 2697, 2700, 2697, 2710, 2710, 2412, 2649, 2696]
ch1 : [3192, 3193, 3190, 3191, 3194, 3194, 3193, 3193, 3194, 3192]
ch2 : [567, 560, 565, 560, 559, 558, 540, 550, 567, 572]
ch3 : [2963, 2959, 2963, 2963, 2957, 2965, 2965, 2964, 2967, 2967]
ch0 : [2692, 2702, 2687, 2697, 2701, 2707, 2592, 2700, 2699, 2696]
ch1 : [3201, 3179, 3191, 3205, 3191, 3192, 3187, 3192, 3191, 3190]
ch2 : [561, 561, 558, 562, 548, 544, 562, 571, 567, 568]
ch3 : [2965, 2960, 2955, 2964, 2963, 2951, 2966, 2965, 2962, 2956]
ch0 : [2701, 2686, 2693, 2709, 2413, 2646, 2697, 2691, 2708, 2690]
ch1 : [3188, 3191, 3190, 3193, 3191, 3188, 3191, 3192, 3190, 3190]
ch2 : [562, 560, 567, 544, 554, 568, 572, 572, 558, 561]
ch3 : [2964, 2959, 2963, 2968, 2963, 2961, 2970, 2966, 2955, 2964]
ch0 : [2697, 2712, 2712, 2606, 2698, 2701, 2704, 2702, 2679, 2700]
ch1 : [3192, 3191, 3194, 3187, 3184, 3191, 3191, 3194, 3193, 3195]
ch2 : [566, 548, 553, 562, 572, 569, 569, 566, 565, 566]
ch3 : [2964, 2966, 2966, 2973, 2965, 2962, 2976, 2965, 2965, 2968]
ch0 : [2717, 2399, 2642, 2712, 2702, 2699, 2698, 2694, 2711, 2710]
ch1 : [3192, 3203, 3193, 3188, 3194, 3190, 3177, 3190, 3201, 3195]
ch2 : [549, 544, 573, 574, 571, 565, 555, 569, 556, 551]
ch3 : [2962, 2964, 2967, 2968, 2966, 2963, 2965, 2948, 2965, 2963]
ch0 : [2581, 2701, 2700, 2705, 2703, 2684, 2666, 2710, 2396, 2633]
ch1 : [3195, 3194, 3188, 3191, 3193, 3194, 3194, 3192, 3202, 3191]
ch2 : [565, 578, 570, 576, 568, 568, 574, 546, 561, 581]
ch3 : [2967, 2964, 2964, 2966, 2964, 2965, 2967, 2964, 2963, 2967]
ch0 : [2698, 2699, 2700, 2694, 2700, 2711, 2712, 2560, 2703, 2700]
ch1 : [3192, 3192, 3195, 3191, 3185, 3195, 3185, 3196, 3190, 3192]
ch2 : [581, 575, 566, 573, 570, 560, 554, 571, 578, 580]
ch3 : [2968, 2957, 2968, 2962, 2965, 2962, 2964, 2971, 2965, 2964]
ch0 : [2703, 2702, 2665, 2658, 2710, 2469, 2628, 2698, 2701, 2706]
ch1 : [3195, 3193, 3194, 3193, 3195, 3192, 3191, 3191, 3195, 3193]
ch2 : [588, 573, 573, 574, 550, 558, 582, 597, 579, 572]
ch3 : [2969, 2959, 2973, 2965, 2960, 2962, 2968, 2972, 2969, 2963]
ch0 : [2709, 2703, 2710, 2709, 2569, 2691, 2695, 2703, 2706, 2680]
ch1 : [3191, 3192, 3189, 3198, 3192, 3189, 3193, 3192, 3192, 3189]
ch2 : [574, 577, 568, 561, 576, 583, 583, 582, 579, 578]
ch3 : [2959, 2960, 2959, 2969, 2968, 2967, 2966, 2965, 2962, 2964]
ch0 : [2658, 2725, 2520, 2617, 2694, 2698, 2705, 2695, 2704, 2715]
ch1 : [3191, 3184, 3193, 3191, 3201, 3200, 3192, 3194, 3192, 3194]
ch2 : [581, 562, 564, 585, 589, 584, 578, 578, 585, 575]
ch3 : [2967, 2966, 2962, 2969, 2965, 2969, 2964, 2964, 2957, 2959]
ch0 : [2717, 2547, 2695, 2698, 2699, 2703, 2700, 2649, 2709, 2588]
ch1 : [3192, 3194, 3194, 3189, 3187, 3193, 3197, 3191, 3192, 3194]
ch2 : [564, 581, 586, 583, 585, 584, 582, 590, 560, 562]
ch3 : [2968, 2963, 2968, 2965, 2965, 2961, 2966, 2965, 2964, 2965]
ch0 : [2609, 2697, 2703, 2705, 2700, 2699, 2713, 2707, 2523, 2689]
ch1 : [3192, 3193, 3195, 3190, 3185, 3192, 3191, 3191, 3186, 3191]
ch2 : [589, 592, 590, 581, 580, 585, 576, 564, 580, 596]
ch3 : [2965, 2972, 2972, 2963, 2968, 2966, 2967, 2958, 2969, 2963]
ch0 : [2712, 2704, 2702, 2687, 2646, 2715, 2698, 2583, 2690, 2695]
ch1 : [3191, 3194, 3194, 3194, 3189, 3186, 3191, 3194, 3190, 3191]
ch2 : [600, 589, 587, 591, 586, 572, 564, 590, 598, 592]
ch3 : [2968, 2966, 2966, 2967, 2968, 2964, 2968, 2966, 2972, 2967]
ch0 : [2706, 2698, 2697, 2713, 2709, 2536, 2692, 2687, 2701, 2702]
ch1 : [3193, 3194, 3188, 3192, 3193, 3183, 3203, 3196, 3193, 3194]
ch2 : [587, 585, 586, 583, 571, 583, 595, 595, 592, 591]
ch3 : [2962, 2961, 2966, 2976, 2964, 2967, 2965, 2972, 2967, 2964]
ch0 : [2712, 2708, 2506, 2679, 2700, 2697, 2703, 2691, 2676, 2714]
ch1 : [3191, 3190, 3192, 3197, 3195, 3187, 3193, 3192, 3190, 3191]
ch2 : [590, 570, 581, 601, 599, 596, 596, 598, 599, 578]
ch3 : [2969, 2974, 2972, 2967, 2962, 2969, 2968, 2960, 2967, 2962]
ch0 : [2690, 2564, 2698, 2698, 2705, 2705, 2694, 2708, 2713, 2492]
ch1 : [3188, 3193, 3193, 3193, 3187, 3188, 3194, 3190, 3190, 3188]
ch2 : [572, 594, 605, 600, 596, 597, 595, 596, 559, 590]
ch3 : [2966, 2966, 2969, 2968, 2967, 2968, 2963, 2964, 2966, 2969]
ch0 : [2677, 2702, 2702, 2702, 2687, 2669, 2714, 2704, 2550, 2691]
ch1 : [3190, 3191, 3191, 3188, 3189, 3196, 3193, 3196, 3192, 3194]
ch2 : [601, 611, 595, 601, 596, 596, 581, 574, 599, 605]
ch3 : [2967, 2965, 2966, 2965, 2967, 2968, 2965, 2965, 2969, 2970]
ch0 : [2696, 2706, 2703, 2703, 2712, 2712, 2485, 2669, 2701, 2700]
ch1 : [3191, 3191, 3186, 3191, 3180, 3193, 3191, 3195, 3190, 3191]
ch2 : [607, 596, 596, 597, 598, 580, 584, 602, 604, 602]
ch3 : [2970, 2969, 2961, 2965, 2968, 2964, 2970, 2969, 2975, 2968]
ch0 : [2707, 2702, 2686, 2713, 2716, 2544, 2686, 2699, 2705, 2702]
ch1 : [3191, 3194, 3191, 3190, 3192, 3189, 3196, 3192, 3192, 3192]
ch2 : [602, 597, 597, 584, 578, 598, 609, 604, 601, 599]
ch3 : [2966, 2963, 2963, 2964, 2964, 2965, 2969, 2968, 2965, 2964]
ch0 : [2694, 2708, 2715, 2496, 2667, 2701, 2704, 2705, 2690, 2685]
ch1 : [3183, 3192, 3192, 3198, 3190, 3193, 3192, 3194, 3193, 3192]
ch2 : [599, 599, 582, 590, 605, 608, 610, 603, 602, 602]
ch3 : [2967, 2966, 2969, 2969, 2963, 2968, 2963, 2968, 2972, 2966]
ch0 : [2503, 2662, 2705, 2698, 2704, 2687, 2667, 2714, 2707, 2506]
ch1 : [3201, 3190, 3192, 3188, 3193, 3186, 3195, 3192, 3190, 3191]
ch2 : [591, 605, 610, 610, 606, 603, 606, 598, 588, 601]
ch3 : [2969, 2974, 2970, 2966, 2962, 2967, 2968, 2964, 2971, 2963]
ch0 : [2698, 2701, 2706, 2703, 2693, 2682, 2717, 2582, 2655, 2700]
ch1 : [3192, 3191, 3196, 3193, 3194, 3190, 3190, 3193, 3191, 3192]
ch2 : [617, 611, 608, 603, 610, 611, 589, 591, 607, 616]
ch3 : [2972, 2963, 2968, 2965, 2969, 2980, 2971, 2970, 2970, 2972]
ch0 : [2702, 2702, 2693, 2697, 2720, 2714, 2495, 2679, 2698, 2707]
ch1 : [3190, 3194, 3191, 3191, 3193, 3194, 3192, 3192, 3193, 3190]
ch2 : [617, 610, 595, 607, 600, 579, 606, 620, 618, 613]
ch3 : [2966, 2967, 2967, 2965, 2966, 2963, 2967, 2969, 2969, 2966]
ch0 : [2706, 2695, 2690, 2710, 2631, 2661, 2698, 2703, 2704, 2702]
ch1 : [3193, 3190, 3195, 3194, 3194, 3191, 3190, 3191, 3193, 3202]
ch2 : [602, 612, 615, 596, 601, 617, 623, 623, 621, 611]
ch3 : [2959, 2964, 2967, 2966, 2970, 2962, 2969, 2965, 2968, 2966]
ch0 : [2703, 2710, 2716, 2475, 2677, 2700, 2712, 2707, 2696, 2685]
ch1 : [3187, 3198, 3195, 3186, 3190, 3192, 3188, 3193, 3191, 3187]
ch2 : [614, 610, 592, 614, 625, 618, 618, 617, 616, 617]
ch3 : [2966, 2964, 2966, 2967, 2970, 2967, 2968, 2957, 2967, 2964]
ch0 : [2714, 2648, 2632, 2698, 2703, 2703, 2701, 2707, 2713, 2722]
ch1 : [3192, 3202, 3193, 3195, 3192, 3192, 3195, 3191, 3189, 3189]
ch2 : [601, 596, 617, 619, 619, 620, 614, 621, 612, 587]
ch3 : [2963, 2969, 2968, 2966, 2967, 2966, 2968, 2963, 2963, 2962]
ch0 : [2455, 2666, 2699, 2700, 2705, 2702, 2689, 2714, 2707, 2624]
ch1 : [3192, 3191, 3193, 3193, 3192, 3192, 3190, 3192, 3194, 3187]
ch2 : [607, 628, 623, 617, 611, 610, 616, 599, 599, 623]
ch3 : [2967, 2967, 2969, 2966, 2964, 2966, 2965, 2965, 2969, 2968]
ch0 : [2699, 2707, 2687, 2689, 2707, 2673, 2623, 2697, 2697, 2695]
ch1 : [3194, 3191, 3189, 3194, 3190, 3192, 3189, 3192, 3192, 3188]
ch2 : [628, 623, 621, 609, 608, 605, 625, 635, 629, 630]
ch3 : [2967, 2965, 2962, 2971, 2963, 2968, 2966, 2965, 2965, 2963]
ch0 : [2698, 2697, 2706, 2711, 2458, 2687, 2699, 2684, 2701, 2673]
ch1 : [3189, 3193, 3192, 3194, 3193, 3187, 3193, 3193, 3167, 3191]
ch2 : [621, 625, 620, 606, 608, 634, 636, 625, 619, 622]
ch3 : [2966, 2965, 2964, 2963, 2964, 2964, 2966, 2968, 2949, 2957]
ch0 : [2687, 2715, 2707, 2603, 2696, 2701, 2703, 2698, 2688, 2710]
ch1 : [3191, 3191, 3190, 3191, 3193, 3193, 3192, 3190, 3189, 3192]
ch2 : [613, 613, 607, 626, 634, 629, 628, 614, 624, 608]
ch3 : [2961, 2959, 2962, 2965, 2965, 2961, 2961, 2964, 2965, 2965]
ch0 : [2710, 2401, 2640, 2696, 2699, 2703, 2694, 2684, 2711, 2706]
ch1 : [3194, 3194, 3194, 3191, 3193, 3191, 3188, 3193, 3191, 3194]
ch2 : [597, 601, 630, 632, 626, 617, 617, 621, 604, 593]
ch3 : [2961, 2955, 2967, 2966, 2963, 2960, 2959, 2948, 2961, 2964]
ch0 : [2588, 2695, 2696, 2695, 2702, 2690, 2702, 2701, 2433, 2650]
ch1 : [3192, 3193, 3181, 3191, 3191, 3178, 3187, 3192, 3193, 3192]
ch2 : [621, 633, 627, 625, 624, 621, 616, 599, 605, 628]
ch3 : [2965, 2964, 2961, 2964, 2961, 2962, 2962, 2959, 2962, 2968]
ch0 : [2697, 2695, 2705, 2688, 2695, 2709, 2707, 2593, 2696, 2697]
ch1 : [3191, 3181, 3192, 3193, 3186, 3190, 3188, 3195, 3191, 3194]
ch2 : [636, 623, 617, 613, 617, 600, 595, 608, 629, 613]
ch3 : [2958, 2963, 2958, 2963, 2962, 2959, 2957, 2959, 2962, 2966]
ch0 : [2698, 2704, 2673, 2698, 2711, 2397, 2642, 2692, 2691, 2701]
ch1 : [3178, 3187, 3190, 3191, 3194, 3197, 3181, 3196, 3191, 3190]
ch2 : [616, 611, 616, 597, 575, 600, 619, 620, 613, 606]
ch3 : [2959, 2958, 2961, 2963, 2961, 2958, 2964, 2965, 2963, 2958]
ch0 : [2689, 2701, 2714, 2704, 2600, 2697, 2693, 2708, 2699, 2663]
ch1 : [3185, 3191, 3194, 3191, 3191, 3193, 3192, 3192, 3194, 3193]
ch2 : [613, 610, 597, 589, 612, 616, 613, 614, 610, 607]
ch3 : [2959, 2961, 2963, 2958, 2963, 2959, 2961, 2959, 2961, 2959]
ch0 : [2663, 2708, 2406, 2615, 2692, 2699, 2687, 2676, 2697, 2710]
ch1 : [3190, 3187, 3196, 3191, 3196, 3193, 3192, 3193, 3192, 3190]
ch2 : [606, 589, 590, 613, 614, 603, 601, 599, 609, 588]
ch3 : [2959, 2955, 2959, 2972, 2962, 2960, 2968, 2956, 2948, 2961]
ch0 : [2626, 2693, 2699, 2698, 2684, 2689, 2702, 2702, 2566, 2693]
ch1 : [3192, 3194, 3197, 3192, 3193, 3192, 3191, 3190, 3192, 3190]
ch2 : [605, 604, 596, 599, 596, 590, 579, 584, 583, 599]
ch3 : [2961, 2962, 2954, 2954, 2954, 2956, 2956, 2957, 2958, 2960]
ch0 : [2698, 2704, 2701, 2677, 2668, 2710, 2533, 2598, 2689, 2696]
ch1 : [3197, 3193, 3194, 3192, 3191, 3190, 3192, 3191, 3192, 3190]
ch2 : [596, 596, 592, 588, 590, 573, 568, 594, 592, 590]
ch3 : [2958, 2959, 2957, 2954, 2951, 2951, 2952, 2958, 2957, 2955]
ch0 : [2700, 2688, 2694, 2699, 2706, 2542, 2696, 2692, 2694, 2706]
ch1 : [3192, 3193, 3195, 3190, 3189, 3192, 3181, 3191, 3190, 3192]
ch2 : [585, 586, 583, 578, 562, 583, 590, 597, 584, 581]
ch3 : [2953, 2951, 2956, 2951, 2952, 2955, 2953, 2951, 2957, 2954]
ch0 : [2677, 2650, 2705, 2551, 2571, 2693, 2694, 2692, 2685, 2696]
ch1 : [3189, 3191, 3191, 3191, 3191, 3191, 3187, 3189, 3189, 3190]
ch2 : [585, 589, 562, 561, 580, 592, 587, 581, 582, 584]
ch3 : [2961, 2950, 2951, 2954, 2956, 2946, 2954, 2948, 2942, 2945]
ch0 : [2704, 2699, 2520, 2685, 2693, 2695, 2696, 2691, 2652, 2711]
ch1 : [3188, 3187, 3184, 3193, 3200, 3194, 3192, 3194, 3187, 3190]
ch2 : [578, 560, 577, 584, 583, 589, 581, 578, 576, 563]
ch3 : [2947, 2953, 2951, 2953, 2950, 2949, 2949, 2949, 2946, 2946]
ch0 : [2654, 2589, 2691, 2693, 2701, 2691, 2693, 2703, 2702, 2499]
ch1 : [3192, 3192, 3192, 3187, 3200, 3193, 3195, 3186, 3195, 3190]
ch2 : [555, 585, 584, 585, 577, 576, 575, 568, 559, 571]
ch3 : [2948, 2954, 2953, 2950, 2947, 2946, 2947, 2952, 2948, 2959]
ch0 : [2673, 2692, 2695, 2695, 2680, 2650, 2708, 2704, 2585, 2690]
ch1 : [3190, 3194, 3192, 3201, 3186, 3190, 3193, 3194, 3193, 3196]
ch2 : [583, 583, 581, 576, 576, 584, 558, 555, 581, 584]
ch3 : [2949, 2949, 2946, 2947, 2946, 2947, 2949, 2943, 2949, 2950]
ch0 : [2696, 2699, 2692, 2695, 2709, 2713, 2516, 2681, 2692, 2700]
ch1 : [3191, 3193, 3193, 3191, 3193, 3193, 3196, 3195, 3192, 3191]
ch2 : [581, 575, 574, 572, 569, 558, 573, 580, 576, 583]
ch3 : [2947, 2943, 2942, 2939, 2948, 2947, 2948, 2958, 2946, 2945]
ch0 : [2707, 2688, 2661, 2708, 2647, 2567, 2683, 2696, 2699, 2697]
ch1 : [3191, 3193, 3194, 3191, 3191, 3195, 3190, 3187, 3191, 3187]
ch2 : [572, 572, 574, 564, 544, 580, 583, 578, 577, 569]
ch3 : [2943, 2943, 2945, 2941, 2943, 2945, 2943, 2946, 2946, 2945]
ch0 : [2688, 2700, 2706, 2494, 2677, 2695, 2690, 2698, 2675, 2671]
ch1 : [3190, 3193, 3189, 3191, 3187, 3195, 3192, 3187, 3191, 3187]
ch2 : [577, 571, 555, 565, 588, 579, 578, 581, 574, 568]
ch3 : [2942, 2942, 2942, 2937, 2950, 2944, 2935, 2942, 2944, 2947]
ch0 : [2706, 2686, 2550, 2687, 2692, 2699, 2698, 2691, 2701, 2707]
ch1 : [3199, 3191, 3186, 3193, 3191, 3191, 3197, 3192, 3191, 3195]
ch2 : [560, 551, 578, 585, 576, 569, 568, 568, 578, 553]
ch3 : [2943, 2943, 2948, 2947, 2946, 2939, 2932, 2941, 2943, 2945]
ch0 : [2479, 2667, 2697, 2693, 2700, 2680, 2666, 2705, 2707, 2525]
ch1 : [3196, 3192, 3191, 3190, 3196, 3190, 3193, 3191, 3193, 3200]
ch2 : [560, 580, 576, 577, 575, 567, 568, 556, 553, 564]
ch3 : [2952, 2941, 2944, 2944, 2954, 2945, 2942, 2944, 2943, 2948]
ch0 : [2683, 2694, 2699, 2699, 2676, 2695, 2705, 2504, 2661, 2696]
ch1 : [3192, 3192, 3189, 3192, 3190, 3193, 3186, 3191, 3191, 3191]
ch2 : [580, 572, 565, 563, 567, 564, 550, 555, 570, 573]
ch3 : [2945, 2947, 2944, 2944, 2943, 2943, 2941, 2948, 2949, 2945]
ch0 : [2693, 2701, 2686, 2685, 2707, 2703, 2507, 2669, 2687, 2701]
ch1 : [3191, 3192, 3194, 3187, 3194, 3188, 3187, 3187, 3189, 3191]
ch2 : [570, 569, 581, 567, 551, 547, 564, 580, 576, 571]
ch3 : [2943, 2950, 2943, 2943, 2943, 2944, 2940, 2948, 2945, 2948]
ch0 : [2694, 2697, 2703, 2699, 2554, 2649, 2688, 2697, 2699, 2687]
ch1 : [3192, 3191, 3187, 3179, 3193, 3192, 3197, 3196, 3190, 3189]
ch2 : [569, 565, 565, 554, 555, 570, 569, 571, 570, 569]
ch3 : [2938, 2941, 2942, 2944, 2946, 2945, 2943, 2943, 2939, 2951]
ch0 : [2697, 2706, 2704, 2484, 2665, 2699, 2698, 2691, 2691, 2682]
ch1 : [3191, 3191, 3190, 3196, 3189, 3195, 3202, 3192, 3195, 3191]
ch2 : [567, 552, 545, 564, 576, 572, 567, 547, 571, 567]
ch3 : [2946, 2948, 2943, 2945, 2943, 2947, 2945, 2942, 2942, 2942]
ch0 : [2707, 2644, 2648, 2691, 2708, 2696, 2696, 2685, 2702, 2667]
ch1 : [3204, 3195, 3195, 3192, 3193, 3191, 3188, 3191, 3190, 3192]
ch2 : [551, 548, 576, 573, 572, 581, 566, 567, 556, 551]
ch3 : [2943, 2947, 2947, 2943, 2948, 2950, 2948, 2944, 2934, 2943]
ch0 : [2462, 2684, 2688, 2697, 2697, 2684, 2682, 2708, 2666, 2633]
ch1 : [3191, 3190, 3192, 3191, 3194, 3191, 3188, 3199, 3185, 3193]
ch2 : [563, 576, 577, 572, 568, 564, 576, 553, 556, 572]
ch3 : [2955, 2952, 2948, 2948, 2946, 2948, 2946, 2947, 2951, 2951]
ch0 : [2692, 2695, 2698, 2703, 2695, 2709, 2704, 2478, 2666, 2688]
ch1 : [3195, 3193, 3195, 3192, 3192, 3192, 3196, 3195, 3194, 3191]
ch2 : [570, 561, 572, 568, 574, 565, 556, 568, 584, 577]
ch3 : [2950, 2951, 2950, 2945, 2950, 2950, 2947, 2948, 2953, 2952]
ch0 : [2693, 2704, 2690, 2677, 2707, 2692, 2615, 2698, 2695, 2694]
ch1 : [3198, 3193, 3193, 3179, 3188, 3192, 3191, 3186, 3196, 3193]
ch2 : [577, 573, 572, 577, 559, 559, 574, 582, 577, 577]
ch3 : [2946, 2946, 2945, 2948, 2947, 2953, 2952, 2950, 2953, 2949]
ch0 : [2703, 2696, 2709, 2673, 2444, 2666, 2692, 2691, 2700, 2694]
ch1 : [3190, 3177, 3187, 3192, 3191, 3189, 3189, 3192, 3191, 3187]
ch2 : [574, 571, 568, 554, 567, 586, 581, 578, 572, 577]
ch3 : [2949, 2945, 2953, 2943, 2949, 2957, 2952, 2952, 2948, 2950]
ch0 : [2691, 2690, 2709, 2617, 2695, 2696, 2704, 2685, 2707, 2710]
ch1 : [3197, 3192, 3192, 3193, 3194, 3188, 3190, 3193, 3192, 3190]
ch2 : [576, 561, 561, 571, 582, 581, 581, 577, 576, 572]
ch3 : [2950, 2950, 2955, 2955, 2955, 2956, 2951, 2952, 2962, 2956]
ch0 : [2707, 2425, 2663, 2690, 2697, 2705, 2694, 2684, 2706, 2710]
ch1 : [3187, 3184, 3195, 3193, 3191, 3190, 3188, 3190, 3191, 3195]
ch2 : [556, 573, 585, 588, 584, 572, 572, 576, 563, 560]
ch3 : [2953, 2954, 2955, 2957, 2955, 2951, 2946, 2960, 2943, 2956]
ch0 : [2597, 2693, 2696, 2720, 2703, 2679, 2708, 2708, 2409, 2639]
ch1 : [3188, 3187, 3194, 3192, 3199, 3192, 3197, 3195, 3193, 3191]
ch2 : [580, 586, 585, 567, 579, 577, 576, 560, 568, 587]
ch3 : [2955, 2953, 2955, 2955, 2957, 2951, 2955, 2954, 2954, 2960]
ch0 : [2693, 2699, 2702, 2684, 2701, 2702, 2703, 2598, 2693, 2694]
ch1 : [3193, 3194, 3193, 3193, 3192, 3192, 3183, 3193, 3195, 3190]
ch2 : [582, 581, 576, 577, 578, 561, 566, 582, 585, 587]
ch3 : [2957, 2957, 2953, 2954, 2955, 2958, 2955, 2959, 2958, 2955]
ch0 : [2700, 2698, 2694, 2708, 2708, 2385, 2636, 2697, 2696, 2702]
ch1 : [3192, 3200, 3191, 3192, 3192, 3200, 3193, 3192, 3191, 3191]
ch2 : [583, 583, 576, 583, 577, 581, 585, 590, 580, 584]
ch3 : [2954, 2956, 2957, 2956, 2955, 2957, 2959, 2958, 2956, 2956]
ch0 : [2683, 2710, 2710, 2705, 2584, 2693, 2695, 2701, 2705, 2667]
ch1 : [3190, 3189, 3190, 3194, 3193, 3191, 3188, 3190, 3188, 3190]
ch2 : [588, 581, 569, 562, 584, 591, 583, 587, 584, 593]
ch3 : [2956, 2956, 2957, 2958, 2963, 2955, 2957, 2960, 2960, 2958]
ch0 : [2668, 2707, 2387, 2630, 2697, 2695, 2704, 2693, 2692, 2711]
ch1 : [3191, 3191, 3193, 3187, 3195, 3189, 3191, 3187, 3193, 3194]
ch2 : [580, 559, 572, 592, 592, 583, 586, 580, 588, 572]
ch3 : [2959, 2958, 2954, 2957, 2970, 2958, 2956, 2948, 2955, 2958]
ch0 : [2709, 2575, 2698, 2696, 2697, 2700, 2687, 2676, 2706, 2417]
ch1 : [3193, 3191, 3192, 3201, 3191, 3191, 3192, 3193, 3196, 3195]
ch2 : [568, 582, 586, 589, 588, 585, 583, 586, 568, 567]
ch3 : [2962, 2962, 2959, 2958, 2964, 2961, 2960, 2959, 2956, 2961]
ch0 : [2698, 2698, 2705, 2677, 2663, 2710, 2490, 2613, 2692, 2693]
ch1 : [3193, 3193, 3191, 3186, 3193, 3192, 3193, 3196, 3189, 3193]
ch2 : [599, 594, 594, 591, 590, 575, 578, 597, 600, 600]
ch3 : [2959, 2958, 2960, 2959, 2960, 2959, 2958, 2962, 2962, 2964]
ch0 : [2705, 2688, 2687, 2706, 2709, 2547, 2692, 2700, 2696, 2701]
ch1 : [3193, 3196, 3190, 3197, 3189, 3193, 3193, 3190, 3183, 3194]
ch2 : [592, 592, 593, 582, 571, 586, 599, 600, 593, 591]
ch3 : [2948, 2964, 2956, 2963, 2963, 2964, 2964, 2963, 2962, 2959]
ch0 : [2676, 2653, 2700, 2526, 2593, 2693, 2695, 2688, 2688, 2699]
ch1 : [3191, 3187, 3195, 3192, 3194, 3192, 3196, 3195, 3192, 3193]
ch2 : [593, 590, 573, 565, 600, 603, 594, 592, 590, 590]
ch3 : [2960, 2964, 2956, 2956, 2956, 2962, 2969, 2957, 2958, 2957]
ch0 : [2714, 2707, 2533, 2681, 2696, 2697, 2683, 2683, 2644, 2701]
ch1 : [3194, 3192, 3194, 3189, 3196, 3185, 3190, 3178, 3191, 3189]
ch2 : [587, 571, 586, 598, 600, 597, 591, 593, 592, 581]
ch3 : [2961, 2961, 2963, 2961, 2961, 2961, 2961, 2959, 2964, 2963]
ch0 : [2631, 2578, 2689, 2691, 2701, 2695, 2699, 2704, 2706, 2524]
ch1 : [3193, 3194, 3195, 3191, 3191, 3185, 3193, 3190, 3187, 3191]
ch2 : [580, 595, 598, 595, 592, 588, 593, 574, 574, 587]
ch3 : [2947, 2961, 2964, 2966, 2960, 2961, 2957, 2962, 2961, 2963]
ch0 : [2683, 2695, 2697, 2695, 2685, 2664, 2707, 2706, 2583, 2686]
ch1 : [3193, 3193, 3192, 3193, 3192, 3188, 3193, 3193, 3194, 3189]
ch2 : [597, 595, 597, 604, 595, 581, 576, 572, 597, 599]
ch3 : [2963, 2962, 2950, 2961, 2962, 2964, 2961, 2959, 2959, 2968]
ch0 : [2696, 2700, 2693, 2695, 2707, 2706, 2521, 2679, 2697, 2695]
ch1 : [3190, 3194, 3194, 3191, 3191, 3187, 3192, 3191, 3195, 3193]
ch2 : [604, 588, 590, 593, 586, 580, 585, 603, 599, 598]
ch3 : [2964, 2962, 2960, 2951, 2960, 2961, 2956, 2964, 2962, 2964]
ch0 : [2696, 2696, 2684, 2706, 2697, 2555, 2697, 2689, 2707, 2694]
ch1 : [3191, 3192, 3191, 3191, 3194, 3193, 3191, 3192, 3193, 3190]
ch2 : [591, 594, 598, 580, 571, 595, 606, 599, 599, 596]
ch3 : [2958, 2960, 2963, 2959, 2960, 2965, 2962, 2964, 2959, 2961]
ch0 : [2699, 2711, 2710, 2490, 2673, 2700, 2712, 2708, 2702, 2680]
ch1 : [3191, 3192, 3190, 3192, 3187, 3181, 3192, 3190, 3195, 3191]
ch2 : [578, 595, 581, 578, 600, 601, 590, 612, 595, 597]
ch3 : [2960, 2961, 2962, 2968, 2976, 2963, 2962, 2962, 2963, 2965]
ch0 : [2710, 2708, 2548, 2689, 2695, 2704, 2703, 2691, 2705, 2712]
ch1 : [3192, 3191, 3192, 3187, 3190, 3187, 3187, 3187, 3191, 3187]
ch2 : [584, 574, 597, 616, 602, 596, 594, 596, 601, 575]
ch3 : [2965, 2964, 2965, 2969, 2964, 2962, 2963, 2959, 2963, 2952]
ch0 : [2483, 2666, 2692, 2701, 2703, 2698, 2665, 2712, 2709, 2537]
ch1 : [3191, 3191, 3190, 3193, 3193, 3187, 3193, 3194, 3193, 3190]
ch2 : [583, 609, 606, 606, 601, 599, 601, 590, 580, 604]
ch3 : [2965, 2965, 2949, 2963, 2960, 2962, 2962, 2965, 2962, 2962]
ch0 : [2674, 2701, 2704, 2709, 2691, 2703, 2719, 2498, 2655, 2700]
ch1 : [3194, 3192, 3193, 3192, 3192, 3192, 3191, 3196, 3193, 3195]
ch2 : [611, 611, 601, 600, 602, 601, 583, 587, 608, 610]
ch3 : [2966, 2966, 2964, 2951, 2965, 2965, 2960, 2964, 2975, 2964]
ch0 : [2698, 2703, 2690, 2679, 2713, 2701, 2504, 2683, 2698, 2707]
ch1 : [3192, 3188, 3190, 3192, 3196, 3198, 3194, 3193, 3193, 3192]
ch2 : [608, 604, 604, 599, 590, 578, 600, 615, 610, 597]
ch3 : [2967, 2961, 2962, 2962, 2961, 2962, 2964, 2966, 2965, 2963]
ch0 : [2703, 2689, 2697, 2710, 2542, 2654, 2697, 2699, 2701, 2700]
ch1 : [3181, 3197, 3191, 3190, 3192, 3190, 3192, 3193, 3192, 3190]
ch2 : [604, 602, 590, 586, 586, 606, 611, 607, 605, 607]
ch3 : [2962, 2959, 2960, 2965, 2966, 2964, 2964, 2966, 2975, 2962]
ch0 : [2678, 2705, 2670, 2502, 2689, 2694, 2704, 2700, 2690, 2690]
ch1 : [3190, 3184, 3190, 3192, 3194, 3193, 3196, 3192, 3191, 3187]
ch2 : [604, 591, 592, 604, 616, 613, 608, 602, 604, 606]
ch3 : [2957, 2963, 2961, 2965, 2967, 2968, 2962, 2963, 2962, 2964]
ch0 : [2710, 2612, 2648, 2695, 2699, 2695, 2689, 2698, 2708, 2715]
ch1 : [3192, 3192, 3193, 3187, 3193, 3190, 3191, 3195, 3192, 3194]
ch2 : [591, 592, 610, 614, 612, 611, 605, 607, 596, 585]
ch3 : [2967, 2967, 2966, 2969, 2962, 2965, 2959, 2963, 2965, 2965]
ch0 : [2492, 2676, 2695, 2702, 2700, 2697, 2687, 2706, 2637, 2644]
ch1 : [3190, 3190, 3194, 3193, 3194, 3192, 3190, 3193, 3187, 3182]
ch2 : [598, 612, 615, 610, 606, 606, 605, 592, 591, 612]
ch3 : [2964, 2966, 2968, 2965, 2962, 2962, 2964, 2966, 2969, 2966]
ch0 : [2697, 2697, 2699, 2695, 2689, 2710, 2712, 2479, 2678, 2694]
ch1 : [3193, 3189, 3191, 3193, 3193, 3191, 3195, 3195, 3192, 3191]
ch2 : [616, 614, 612, 611, 609, 594, 588, 609, 623, 620]
ch3 : [2976, 2963, 2958, 2964, 2963, 2964, 2964, 2965, 2967, 2969]
ch0 : [2703, 2701, 2693, 2693, 2710, 2694, 2644, 2697, 2700, 2703]
ch1 : [3191, 3191, 3192, 3202, 3194, 3193, 3193, 3193, 3192, 3193]
ch2 : [615, 612, 610, 612, 595, 594, 617, 621, 617, 618]
ch3 : [2959, 2966, 2962, 2965, 2965, 2968, 2966, 2962, 2966, 2962]
ch0 : [2700, 2700, 2713, 2708, 2464, 2679, 2698, 2699, 2707, 2690]
ch1 : [3192, 3194, 3192, 3191, 3196, 3193, 3196, 3192, 3192, 3187]
ch2 : [609, 614, 615, 592, 607, 624, 632, 615, 608, 612]
ch3 : [2965, 2964, 2963, 2965, 2968, 2968, 2966, 2964, 2953, 2961]
ch0 : [2681, 2713, 2708, 2625, 2696, 2697, 2705, 2702, 2705, 2714]
ch1 : [3193, 3188, 3189, 3189, 3198, 3191, 3193, 3195, 3192, 3190]
ch2 : [619, 598, 594, 617, 625, 624, 619, 619, 615, 617]
ch3 : [2961, 2965, 2967, 2966, 2965, 2966, 2964, 2962, 2963, 2963]
ch0 : [2608, 2698, 2695, 2701, 2701, 2694, 2717, 2708, 2429, 2657]
ch1 : [3192, 3189, 3191, 3194, 3193, 3195, 3191, 3192, 3194, 3191]
ch2 : [610, 625, 623, 622, 605, 621, 617, 587, 608, 627]
ch3 : [2965, 2967, 2971, 2965, 2963, 2964, 2963, 2962, 2963, 2967]
ch0 : [2681, 2693, 2707, 2689, 2676, 2721, 2708, 2578, 2702, 2700]
ch1 : [3190, 3192, 3194, 3191, 3187, 3194, 3193, 3197, 3199, 3192]
ch2 : [632, 624, 619, 620, 621, 604, 600, 625, 631, 627]
ch3 : [2969, 2969, 2962, 2962, 2965, 2965, 2968, 2966, 2966, 2964]
ch0 : [2701, 2699, 2691, 2705, 2698, 2406, 2651, 2691, 2700, 2698]
ch1 : [3192, 3192, 3186, 3190, 3194, 3184, 3193, 3187, 3192, 3188]
ch2 : [622, 623, 618, 625, 598, 607, 631, 631, 632, 622]
ch3 : [2963, 2970, 2965, 2966, 2961, 2964, 2959, 2965, 2964, 2966]
ch0 : [2712, 2682, 2707, 2696, 2586, 2700, 2696, 2695, 2702, 2685]
ch1 : [3193, 3192, 3192, 3189, 3192, 3195, 3188, 3194, 3187, 3200]
ch2 : [621, 625, 614, 599, 618, 630, 622, 619, 622, 626]
ch3 : [2964, 2966, 2965, 2963, 2971, 2963, 2967, 2963, 2967, 2963]
ch0 : [2694, 2711, 2385, 2639, 2699, 2699, 2705, 2697, 2687, 2710]
ch1 : [3191, 3183, 3195, 3189, 3195, 3190, 3191, 3195, 3193, 3193]
ch2 : [625, 599, 605, 626, 628, 631, 621, 634, 623, 614]
ch3 : [2968, 2978, 2964, 2965, 2970, 2966, 2963, 2961, 2963, 2964]
ch0 : [2712, 2583, 2696, 2700, 2704, 2705, 2684, 2666, 2714, 2402]
ch1 : [3190, 3193, 3189, 3191, 3194, 3174, 3194, 3192, 3193, 3190]
ch2 : [601, 623, 631, 620, 626, 636, 626, 624, 603, 610]
ch3 : [2968, 2959, 2970, 2969, 2967, 2963, 2960, 2969, 2961, 2965]
ch0 : [2633, 2699, 2699, 2705, 2691, 2700, 2714, 2695, 2579, 2708]
ch1 : [3193, 3194, 3204, 3187, 3191, 3195, 3193, 3190, 3194, 3187]
ch2 : [637, 637, 630, 622, 625, 624, 613, 609, 622, 632]
ch3 : [2967, 2968, 2963, 2963, 2962, 2963, 2961, 2968, 2968, 2969]
ch0 : [2707, 2703, 2704, 2680, 2667, 2711, 2464, 2621, 2679, 2701]
ch1 : [3190, 3192, 3192, 3189, 3193, 3191, 3194, 3193, 3193, 3193]
ch2 : [645, 633, 623, 630, 626, 604, 607, 635, 635, 630]
ch3 : [2968, 2966, 2957, 2965, 2964, 2964, 2965, 2963, 2972, 2966]
ch0 : [2709, 2693, 2712, 2712, 2707, 2539, 2697, 2699, 2702, 2699]
ch1 : [3196, 3188, 3192, 3193, 3190, 3190, 3193, 3190, 3189, 3187]
ch2 : [625, 620, 621, 625, 605, 623, 634, 635, 628, 630]
ch3 : [2968, 2966, 2967, 2963, 2966, 2967, 2968, 2966, 2968, 2964]
ch0 : [2687, 2651, 2712, 2555, 2611, 2693, 2699, 2703, 2695, 2701]
ch1 : [3190, 3191, 3194, 3188, 3191, 3193, 3193, 3195, 3191, 3200]
ch2 : [627, 627, 612, 610, 638, 639, 641, 630, 628, 630]
ch3 : [2968, 2959, 2958, 2962, 2963, 2968, 2970, 2965, 2968, 2964]
ch0 : [2637, 2606, 2695, 2701, 2704, 2704, 2701, 2712, 2711, 2543]
ch1 : [3191, 3194, 3190, 3196, 3193, 3193, 3194, 3193, 3190, 3188]
ch2 : [606, 636, 642, 638, 631, 628, 632, 626, 616, 622]
ch3 : [2965, 2967, 2966, 2952, 2964, 2959, 2959, 2963, 2966, 2964]
ch0 : [2681, 2699, 2715, 2705, 2703, 2655, 2726, 2705, 2585, 2699]
ch1 : [3188, 3191, 3193, 3191, 3191, 3190, 3191, 3188, 3192, 3191]
ch2 : [636, 638, 644, 637, 636, 635, 613, 617, 639, 647]
ch3 : [2963, 2968, 2967, 2966, 2966, 2964, 2963, 2970, 2964, 2966]
ch0 : [2702, 2705, 2719, 2703, 2713, 2711, 2520, 2684, 2704, 2695]
ch1 : [3196, 3200, 3191, 3191, 3193, 3190, 3190, 3193, 3192, 3190]
ch2 : [644, 633, 630, 628, 630, 626, 626, 642, 636, 645]
ch3 : [2973, 2964, 2963, 2963, 2963, 2965, 2961, 2968, 2966, 2959]
ch0 : [2698, 2697, 2660, 2720, 2700, 2570, 2695, 2699, 2703, 2703]
ch1 : [3187, 3191, 3192, 3191, 3200, 3191, 3190, 3186, 3195, 3192]
ch2 : [641, 634, 637, 619, 609, 654, 644, 644, 635, 632]
ch3 : [2959, 2958, 2963, 2967, 2961, 2966, 2966, 2968, 2965, 2961]
ch0 : [2692, 2710, 2713, 2503, 2675, 2697, 2700, 2698, 2700, 2670]
ch1 : [3192, 3193, 3202, 3192, 3192, 3187, 3193, 3184, 3193, 3193]
ch2 : [638, 636, 621, 626, 646, 645, 644, 642, 643, 642]
ch3 : [2963, 2964, 2964, 2966, 2967, 2969, 2965, 2966, 2964, 2968]
ch0 : [2718, 2714, 2554, 2696, 2700, 2706, 2698, 2695, 2710, 2705]
ch1 : [3194, 3193, 3186, 3190, 3193, 3196, 3193, 3191, 3191, 3196]
ch2 : [626, 617, 646, 657, 649, 642, 640, 643, 640, 622]
ch3 : [2963, 2962, 2969, 2969, 2969, 2971, 2962, 2964, 2969, 2963]
ch0 : [2498, 2678, 2701, 2678, 2707, 2689, 2673, 2710, 2684, 2541]
ch1 : [3193, 3191, 3190, 3200, 3193, 3189, 3194, 3194, 3188, 3195]
ch2 : [626, 651, 646, 648, 644, 640, 639, 616, 617, 643]
ch3 : [2963, 2971, 2965, 2969, 2961, 2965, 2964, 2964, 2963, 2966]
ch0 : [2696, 2701, 2703, 2704, 2691, 2705, 2713, 2459, 2653, 2700]
ch1 : [3191, 3195, 3185, 3187, 3190, 3192, 3190, 3194, 3195, 3191]
ch2 : [652, 650, 637, 634, 643, 641, 623, 626, 647, 650]
ch3 : [2966, 2965, 2966, 2958, 2962, 2964, 2962, 2962, 2962, 2959]
ch0 : [2688, 2700, 2695, 2669, 2713, 2709, 2523, 2686, 2696, 2700]
ch1 : [3195, 3196, 3191, 3191, 3191, 3193, 3193, 3191, 3180, 3192]
ch2 : [645, 640, 641, 640, 626, 616, 643, 648, 653, 637]
ch3 : [2965, 2963, 2966, 2958, 2963, 2958, 2961, 2964, 2963, 2962]
ch0 : [2698, 2698, 2706, 2714, 2478, 2656, 2694, 2699, 2708, 2692]
ch1 : [3192, 3191, 3193, 3191, 3192, 3179, 3190, 3187, 3191, 3187]
ch2 : [637, 630, 636, 623, 625, 646, 649, 641, 643, 634]
ch3 : [2957, 2962, 2961, 2962, 2963, 2963, 2964, 2962, 2962, 2963]
ch0 : [2711, 2565, 2670, 2699, 2702, 2705, 2692, 2702, 2714, 2706]
ch1 : [3191, 3192, 3190, 3196, 3193, 3194, 3191, 3191, 3191, 3192]
ch2 : [612, 604, 640, 644, 637, 629, 643, 635, 622, 611]
ch3 : [2963, 2966, 2962, 2959, 2962, 2962, 2961, 2959, 2961, 2960]
ch0 : [2506, 2676, 2701, 2706, 2687, 2696, 2701, 2713, 2615, 2651]
ch1 : [3194, 3192, 3194, 3192, 3190, 3189, 3192, 3189, 3192, 3190]
ch2 : [638, 644, 649, 632, 622, 621, 629, 611, 609, 626]
ch3 : [2963, 2968, 2966, 2962, 2955, 2956, 2960, 2957, 2961, 2961]
ch0 : [2696, 2696, 2702, 2704, 2688, 2711, 2711, 2493, 2680, 2697]
ch1 : [3192, 3192, 3193, 3193, 3201, 3193, 3193, 3191, 3190, 3195]
ch2 : [624, 624, 624, 620, 619, 605, 588, 609, 623, 620]
ch3 : [2958, 2960, 2962, 2957, 2960, 2956, 2956, 2959, 2955, 2960]
ch0 : [2701, 2697, 2713, 2693, 2712, 2640, 2645, 2698, 2700, 2700]
ch1 : [3192, 3193, 3196, 3201, 3192, 3190, 3192, 3187, 3195, 3193]
ch2 : [609, 607, 607, 606, 587, 597, 626, 628, 612, 607]
ch3 : [2957, 2949, 2956, 2957, 2959, 2957, 2960, 2964, 2955, 2957]
ch0 : [2705, 2694, 2713, 2712, 2457, 2665, 2690, 2706, 2706, 2695]
ch1 : [3193, 3192, 3191, 3190, 3196, 3193, 3192, 3187, 3191, 3193]
ch2 : [606, 606, 595, 582, 596, 610, 614, 603, 599, 594]
ch3 : [2951, 2953, 2960, 2960, 2957, 2957, 2961, 2954, 2952, 2954]
ch0 : [2681, 2703, 2675, 2632, 2700, 2700, 2702, 2707, 2713, 2712]
ch1 : [3192, 3192, 3192, 3186, 3193, 3194, 3193, 3190, 3191, 3195]
ch2 : [594, 579, 573, 597, 596, 593, 589, 588, 584, 581]
ch3 : [2957, 2957, 2957, 2963, 2956, 2957, 2955, 2954, 2957, 2953]
ch0 : [2708, 2456, 2661, 2697, 2699, 2703, 2684, 2679, 2708, 2706]
ch1 : [3189, 3192, 3193, 3190, 3190, 3193, 3194, 3197, 3192, 3190]
ch2 : [567, 583, 592, 586, 587, 580, 581, 584, 564, 567]
ch3 : [2951, 2957, 2956, 2955, 2955, 2952, 2953, 2954, 2956, 2960]
ch0 : [2624, 2711, 2699, 2702, 2699, 2700, 2718, 2707, 2435, 2671]
ch1 : [3192, 3192, 3192, 3187, 3192, 3187, 3191, 3187, 3196, 3186]
ch2 : [592, 594, 579, 583, 582, 576, 575, 539, 566, 582]
ch3 : [2958, 2955, 2951, 2951, 2951, 2951, 2952, 2952, 2956, 2954]
ch0 : [2699, 2700, 2708, 2702, 2672, 2710, 2710, 2623, 2699, 2700]
ch1 : [3193, 3192, 3186, 3196, 3189, 3192, 3192, 3189, 3193, 3193]
ch2 : [581, 580, 571, 573, 572, 550, 545, 570, 575, 572]
ch3 : [2951, 2953, 2949, 2942, 2946, 2949, 2949, 2953, 2949, 2947]
ch0 : [2699, 2703, 2693, 2711, 2712, 2412, 2660, 2698, 2699, 2705]
ch1 : [3192, 3194, 3192, 3193, 3197, 3193, 3194, 3192, 3192, 3193]
ch2 : [568, 563, 566, 567, 545, 551, 573, 561, 564, 562]
ch3 : [2947, 2949, 2949, 2944, 2945, 2946, 2938, 2951, 2948, 2948]
ch0 : [2679, 2690, 2703, 2712, 2603, 2699, 2699, 2703, 2702, 2681]
ch1 : [3196, 3190, 3195, 3195, 3189, 3195, 3194, 3193, 3195, 3191]
ch2 : [562, 569, 557, 548, 569, 569, 565, 567, 569, 571]
ch3 : [2952, 2945, 2943, 2947, 2949, 2949, 2946, 2945, 2945, 2943]
ch0 : [2713, 2710, 2398, 2650, 2691, 2699, 2704, 2687, 2695, 2711]
ch1 : [3192, 3189, 3191, 3188, 3192, 3190, 3187, 3193, 3193, 3184]
ch2 : [572, 545, 560, 570, 570, 569, 560, 560, 560, 547]
ch3 : [2943, 2943, 2942, 2949, 2939, 2942, 2943, 2939, 2942, 2940]
ch0 : [2705, 2604, 2697, 2703, 2702, 2706, 2681, 2714, 2715, 2398]
ch1 : [3193, 3188, 3191, 3192, 3192, 3194, 3186, 3194, 3191, 3183]
ch2 : [542, 559, 565, 563, 562, 562, 553, 561, 552, 544]
ch3 : [2944, 2942, 2943, 2940, 2942, 2935, 2942, 2945, 2940, 2941]
ch0 : [2639, 2696, 2704, 2706, 2686, 2689, 2712, 2710, 2593, 2689]
ch1 : [3187, 3192, 3194, 3189, 3189, 3189, 3198, 3190, 3184, 3191]
ch2 : [568, 567, 566, 561, 561, 565, 550, 550, 561, 569]
ch3 : [2946, 2943, 2945, 2943, 2937, 2938, 2939, 2939, 2946, 2942]
ch0 : [2699, 2702, 2700, 2657, 2684, 2713, 2394, 2629, 2689, 2702]
ch1 : [3190, 3189, 3190, 3188, 3190, 3186, 3196, 3200, 3201, 3194]
ch2 : [572, 569, 564, 564, 564, 544, 547, 571, 562, 564]
ch3 : [2937, 2945, 2942, 2937, 2936, 2936, 2940, 2943, 2935, 2939]
ch0 : [2706, 2700, 2697, 2706, 2712, 2579, 2695, 2700, 2703, 2703]
ch1 : [3192, 3178, 3191, 3192, 3194, 3195, 3197, 3192, 3191, 3193]
ch2 : [545, 558, 557, 544, 543, 556, 570, 566, 565, 560]
ch3 : [2931, 2931, 2937, 2936, 2950, 2941, 2940, 2942, 2941, 2939]
ch0 : [2671, 2656, 2714, 2386, 2628, 2705, 2698, 2705, 2694, 2698]
ch1 : [3190, 3191, 3194, 3192, 3190, 3193, 3194, 3192, 3187, 3191]
ch2 : [556, 557, 533, 539, 570, 564, 560, 553, 553, 559]
ch3 : [2937, 2941, 2922, 2941, 2941, 2945, 2940, 2945, 2935, 2936]
ch0 : [2715, 2706, 2577, 2697, 2702, 2702, 2703, 2683, 2661, 2710]
ch1 : [3190, 3189, 3196, 3193, 3190, 3190, 3196, 3193, 3193, 3193]
ch2 : [544, 537, 552, 573, 560, 556, 554, 555, 554, 535]
ch3 : [2941, 2939, 2941, 2939, 2938, 2941, 2936, 2939, 2936, 2936]
ch0 : [2475, 2622, 2693, 2701, 2709, 2702, 2702, 2715, 2715, 2556]
ch1 : [3193, 3189, 3185, 3195, 3192, 3186, 3191, 3190, 3201, 3195]
ch2 : [539, 563, 561, 555, 552, 550, 553, 548, 536, 553]
ch3 : [2934, 2940, 2939, 2940, 2937, 2939, 2936, 2937, 2940, 2941]
ch0 : [2705, 2701, 2699, 2708, 2700, 2661, 2712, 2558, 2614, 2697]
ch1 : [3192, 3192, 3190, 3194, 3193, 3194, 3192, 3191, 3194, 3190]
ch2 : [560, 560, 562, 550, 544, 556, 537, 531, 560, 564]
ch3 : [2940, 2941, 2939, 2940, 2939, 2940, 2937, 2937, 2943, 2937]
ch0 : [2692, 2687, 2649, 2712, 2586, 2610, 2699, 2698, 2706, 2704]
ch1 : [3191, 3191, 3193, 3192, 3192, 3190, 3206, 3188, 3183, 3193]
ch2 : [553, 556, 554, 539, 533, 557, 561, 558, 554, 548]
ch3 : [2939, 2942, 2941, 2939, 2938, 2945, 2941, 2935, 2944, 2938]
ch0 : [2708, 2712, 2709, 2523, 2683, 2702, 2704, 2699, 2701, 2669]
ch1 : [3190, 3187, 3200, 3196, 3190, 3190, 3192, 3190, 3192, 3191]
ch2 : [549, 548, 534, 546, 560, 557, 558, 557, 553, 557]
ch3 : [2942, 2943, 2942, 2944, 2930, 2945, 2940, 2943, 2941, 2942]
ch0 : [2714, 2704, 2583, 2684, 2701, 2706, 2704, 2714, 2718, 2717]
ch1 : [3192, 3206, 3187, 3185, 3188, 3200, 3190, 3200, 3190, 3190]
ch2 : [541, 533, 558, 560, 562, 558, 554, 556, 548, 540]
ch3 : [2940, 2936, 2948, 2944, 2939, 2942, 2943, 2932, 2945, 2945]
ch0 : [2524, 2683, 2708, 2701, 2703, 2697, 2669, 2713, 2669, 2561]
ch1 : [3195, 3192, 3196, 3196, 3194, 3200, 3190, 3189, 3190, 3196]
ch2 : [554, 567, 562, 559, 558, 556, 561, 540, 537, 562]
ch3 : [2943, 2946, 2941, 2944, 2946, 2944, 2945, 2943, 2945, 2943]
ch0 : [2695, 2698, 2710, 2703, 2704, 2715, 2720, 2493, 2683, 2702]
ch1 : [3189, 3194, 3190, 3192, 3189, 3193, 3196, 3201, 3190, 3196]
ch2 : [562, 557, 556, 561, 562, 556, 543, 552, 563, 565]
ch3 : [2951, 2949, 2948, 2942, 2945, 2946, 2949, 2952, 2948, 2949]
ch0 : [2697, 2708, 2694, 2675, 2714, 2717, 2557, 2699, 2701, 2707]
ch1 : [3192, 3189, 3190, 3190, 3187, 3191, 3178, 3194, 3193, 3187]
ch2 : [563, 562, 563, 562, 546, 544, 561, 566, 566, 562]
ch3 : [2943, 2947, 2943, 2950, 2949, 2946, 2952, 2952, 2952, 2946]
ch0 : [2698, 2701, 2714, 2710, 2486, 2674, 2702, 2704, 2705, 2704]
ch1 : [3191, 3194, 3188, 3193, 3191, 3189, 3195, 3193, 3192, 3188]
ch2 : [563, 559, 561, 548, 547, 568, 569, 565, 564, 564]
ch3 : [2943, 2948, 2949, 2952, 2949, 2950, 2952, 2951, 2950, 2951]
ch0 : [2685, 2716, 2715, 2543, 2697, 2686, 2708, 2699, 2703, 2706]
ch1 : [3187, 3191, 3190, 3192, 3187, 3190, 3195, 3190, 3200, 3190]
ch2 : [551, 551, 546, 568, 580, 569, 566, 566, 567, 568]
ch3 : [2953, 2951, 2947, 2945, 2956, 2950, 2950, 2951, 2948, 2951]
ch0 : [2712, 2488, 2684, 2703, 2687, 2712, 2711, 2677, 2711, 2704]
ch1 : [3191, 3192, 3191, 3200, 3190, 3188, 3190, 3193, 3177, 3194]
ch2 : [548, 554, 572, 578, 575, 573, 569, 574, 557, 550]
ch3 : [2948, 2965, 2952, 2957, 2954, 2953, 2940, 2952, 2950, 2948]
ch0 : [2531, 2698, 2697, 2707, 2707, 2695, 2706, 2726, 2500, 2674]
ch1 : [3190, 3192, 3192, 3190, 3193, 3182, 3192, 3193, 3193, 3192]
ch2 : [575, 581, 577, 577, 572, 571, 574, 556, 559, 583]
ch3 : [2951, 2951, 2956, 2952, 2952, 2952, 2957, 2952, 2957, 2956]
ch0 : [2693, 2698, 2704, 2701, 2686, 2717, 2717, 2524, 2695, 2702]
ch1 : [3189, 3199, 3192, 3193, 3193, 3193, 3190, 3191, 3200, 3195]
ch2 : [579, 578, 593, 575, 575, 565, 549, 579, 585, 582]
ch3 : [2956, 2954, 2954, 2953, 2954, 2954, 2947, 2955, 2956, 2955]
ch0 : [2709, 2707, 2704, 2700, 2723, 2546, 2656, 2705, 2702, 2709]
ch1 : [3191, 3191, 3194, 3191, 3190, 3189, 3187, 3197, 3196, 3191]
ch2 : [586, 572, 579, 577, 562, 558, 581, 585, 582, 579]
ch3 : [2960, 2943, 2948, 2947, 2954, 2956, 2960, 2948, 2956, 2953]
ch0 : [2701, 2688, 2713, 2717, 2503, 2682, 2699, 2709, 2710, 2698]
ch1 : [3193, 3193, 3189, 3183, 3192, 3190, 3194, 3192, 3191, 3190]
ch2 : [574, 591, 571, 562, 577, 592, 586, 583, 574, 574]
ch3 : [2960, 2954, 2959, 2952, 2956, 2958, 2958, 2955, 2954, 2958]
ch0 : [2692, 2710, 2607, 2649, 2702, 2700, 2705, 2699, 2702, 2715]
ch1 : [3187, 3187, 3191, 3192, 3195, 3191, 3192, 3192, 3193, 3194]
ch2 : [566, 566, 567, 581, 585, 583, 582, 586, 581, 573]
ch3 : [2952, 2954, 2956, 2962, 2960, 2955, 2957, 2954, 2956, 2952]
ch0 : [2715, 2496, 2676, 2702, 2705, 2709, 2695, 2684, 2709, 2656]
ch1 : [3193, 3193, 3194, 3191, 3192, 3191, 3188, 3189, 3193, 3193]
ch2 : [564, 577, 594, 589, 586, 584, 582, 586, 566, 567]
ch3 : [2958, 2958, 2960, 2960, 2959, 2957, 2956, 2959, 2957, 2959]
ch0 : [2647, 2699, 2688, 2697, 2700, 2695, 2719, 2714, 2475, 2679]
ch1 : [3192, 3190, 3193, 3193, 3194, 3193, 3188, 3198, 3194, 3190]
ch2 : [586, 590, 583, 584, 584, 584, 580, 564, 582, 594]
ch3 : [2961, 2960, 2954, 2958, 2971, 2956, 2957, 2956, 2959, 2964]
ch0 : [2698, 2704, 2704, 2703, 2692, 2719, 2703, 2643, 2699, 2702]
ch1 : [3198, 3191, 3194, 3196, 3193, 3192, 3190, 3190, 3193, 3191]
ch2 : [607, 587, 583, 578, 586, 571, 568, 586, 594, 590]
ch3 : [2959, 2959, 2956, 2948, 2957, 2956, 2963, 2955, 2960, 2961]
ch0 : [2704, 2700, 2693, 2707, 2711, 2450, 2666, 2700, 2696, 2707]
ch1 : [3196, 3193, 3193, 3193, 3190, 3193, 3189, 3193, 3190, 3193]
ch2 : [588, 588, 586, 580, 563, 580, 597, 600, 589, 585]
ch3 : [2958, 2961, 2960, 2968, 2956, 2961, 2961, 2958, 2960, 2957]
ch0 : [2713, 2689, 2714, 2712, 2625, 2698, 2702, 2707, 2717, 2712]
ch1 : [3188, 3190, 3195, 3194, 3192, 3190, 3191, 3191, 3190, 3193]
ch2 : [583, 588, 570, 568, 591, 599, 597, 589, 591, 589]
ch3 : [2955, 2957, 2960, 2965, 2961, 2962, 2957, 2954, 2959, 2955]
ch0 : [2713, 2706, 2464, 2660, 2706, 2700, 2708, 2699, 2698, 2712]
ch1 : [3192, 3191, 3189, 3195, 3191, 3196, 3192, 3191, 3195, 3194]
ch2 : [588, 573, 585, 600, 598, 596, 587, 591, 594, 580]
ch3 : [2964, 2958, 2961, 2959, 2955, 2960, 2958, 2954, 2958, 2961]
ch0 : [2659, 2706, 2704, 2705, 2700, 2696, 2715, 2713, 2615, 2702]
ch1 : [3192, 3193, 3190, 3187, 3195, 3191, 3184, 3191, 3190, 3190]
ch2 : [604, 596, 603, 592, 594, 595, 580, 568, 598, 599]
ch3 : [2959, 2961, 2963, 2960, 2955, 2954, 2964, 2963, 2959, 2958]
ch0 : [2704, 2710, 2705, 2688, 2709, 2715, 2412, 2661, 2702, 2705]
ch1 : [3195, 3191, 3193, 3193, 3201, 3189, 3192, 3190, 3191, 3191]
ch2 : [602, 596, 597, 595, 596, 579, 583, 606, 602, 602]
ch3 : [2960, 2958, 2959, 2959, 2961, 2958, 2959, 2963, 2967, 2962]
ch0 : [2708, 2701, 2702, 2714, 2706, 2606, 2700, 2707, 2707, 2699]
ch1 : [3195, 3191, 3190, 3193, 3190, 3196, 3192, 3191, 3194, 3187]
ch2 : [596, 594, 610, 580, 579, 597, 604, 603, 598, 598]
ch3 : [2959, 2957, 2960, 2960, 2972, 2968, 2965, 2961, 2961, 2966]
ch0 : [2680, 2707, 2713, 2406, 2641, 2699, 2701, 2708, 2697, 2702]
ch1 : [3191, 3196, 3183, 3195, 3192, 3187, 3194, 3189, 3194, 3192]
ch2 : [592, 597, 575, 585, 605, 607, 601, 595, 597, 600]
ch3 : [2960, 2975, 2951, 2962, 2959, 2962, 2959, 2968, 2959, 2959]
ch0 : [2710, 2715, 2599, 2700, 2698, 2687, 2709, 2705, 2679, 2710]
ch1 : [3187, 3192, 3194, 3193, 3190, 3193, 3190, 3194, 3193, 3190]
