device found = /dev/cu.usbmodem14433
ch0 : [2665, 2661, 2438, 2613, 2653, 2653, 2658, 2637, 2600, 2664]
ch1 : [2455, 2468, 2469, 2452, 2451, 2453, 2448, 2456, 2455, 2464]
ch2 : [1452, 1437, 1444, 1453, 1457, 1453, 1440, 1455, 1458, 1446]
ch3 : [2859, 2857, 2862, 2860, 2859, 2860, 2855, 2855, 2859, 2858]
ch0 : [2647, 2476, 2622, 2649, 2658, 2649, 2627, 2653, 2664, 2451]
ch1 : [2476, 2456, 2449, 2451, 2450, 2462, 2446, 2459, 2486, 2476]
ch2 : [1434, 1456, 1466, 1461, 1469, 1458, 1465, 1460, 1455, 1463]
ch3 : [2864, 2858, 2860, 2860, 2863, 2858, 2866, 2856, 2854, 2860]
ch0 : [2599, 2645, 2636, 2649, 2637, 2617, 2647, 2660, 2455, 2619]
ch1 : [2458, 2460, 2461, 2460, 2477, 2467, 2475, 2483, 2466, 2461]
ch2 : [1465, 1469, 1469, 1465, 1463, 1463, 1452, 1444, 1460, 1463]
ch3 : [2849, 2860, 2858, 2860, 2861, 2860, 2862, 2856, 2860, 2865]
ch0 : [2647, 2657, 2656, 2613, 2639, 2654, 2489, 2588, 2647, 2636]
ch1 : [2463, 2467, 2475, 2472, 2469, 2483, 2491, 2465, 2466, 2471]
ch2 : [1465, 1449, 1468, 1455, 1459, 1436, 1438, 1449, 1448, 1451]
ch3 : [2863, 2860, 2860, 2858, 2856, 2859, 2864, 2867, 2870, 2873]
ch0 : [2650, 2636, 2634, 2666, 2633, 2439, 2629, 2642, 2654, 2651]
ch1 : [2475, 2473, 2478, 2487, 2491, 2481, 2470, 2477, 2477, 2484]
ch2 : [1452, 1446, 1446, 1437, 1431, 1448, 1450, 1450, 1434, 1433]
ch3 : [2861, 2861, 2865, 2859, 2857, 2863, 2861, 2863, 2861, 2863]
ch0 : [2618, 2637, 2667, 2567, 2595, 2653, 2655, 2655, 2643, 2650]
ch1 : [2484, 2486, 2487, 2497, 2483, 2463, 2480, 2486, 2488, 2483]
ch2 : [1448, 1451, 1430, 1435, 1454, 1448, 1453, 1450, 1453, 1451]
ch3 : [2860, 2861, 2860, 2865, 2865, 2865, 2861, 2862, 2860, 2853]
ch0 : [2665, 2648, 2465, 2631, 2654, 2660, 2663, 2633, 2642, 2671]
ch1 : [2491, 2503, 2486, 2479, 2477, 2486, 2478, 2487, 2482, 2497]
ch2 : [1443, 1442, 1450, 1455, 1454, 1454, 1451, 1451, 1448, 1437]
ch3 : [2860, 2859, 2863, 2864, 2858, 2866, 2861, 2859, 2858, 2864]
ch0 : [2573, 2612, 2651, 2659, 2659, 2651, 2651, 2673, 2674, 2441]
ch1 : [2493, 2479, 2479, 2477, 2482, 2483, 2482, 2489, 2501, 2485]
ch2 : [1441, 1453, 1454, 1453, 1456, 1453, 1457, 1447, 1435, 1448]
ch3 : [2871, 2863, 2859, 2863, 2863, 2863, 2864, 2862, 2860, 2862]
ch0 : [2626, 2660, 2658, 2667, 2634, 2641, 2674, 2610, 2596, 2662]
ch1 : [2472, 2471, 2475, 2492, 2480, 2477, 2490, 2494, 2477, 2468]
ch2 : [1459, 1459, 1454, 1450, 1453, 1458, 1439, 1442, 1458, 1461]
ch3 : [2866, 2862, 2858, 2860, 2860, 2859, 2858, 2862, 2859, 2862]
ch0 : [2655, 2658, 2640, 2653, 2667, 2672, 2386, 2605, 2660, 2663]
ch1 : [2461, 2476, 2474, 2474, 2476, 2491, 2481, 2465, 2467, 2467]
ch2 : [1446, 1456, 1457, 1460, 1456, 1439, 1453, 1467, 1459, 1458]
ch3 : [2860, 2861, 2860, 2858, 2858, 2856, 2860, 2862, 2864, 2861]
ch0 : [2654, 2665, 2663, 2391, 2603, 2649, 2650, 2653, 2608, 2613]
ch1 : [2473, 2473, 2482, 2475, 2461, 2463, 2463, 2473, 2460, 2469]
ch2 : [1459, 1458, 1444, 1451, 1469, 1464, 1458, 1459, 1460, 1464]
ch3 : [2859, 2861, 2845, 2859, 2850, 2865, 2862, 2858, 2864, 2858]
ch0 : [2662, 2658, 2545, 2652, 2651, 2654, 2657, 2627, 2658, 2660]
ch1 : [2478, 2482, 2468, 2465, 2466, 2471, 2474, 2474, 2464, 2488]
ch2 : [1448, 1441, 1465, 1465, 1465, 1462, 1464, 1460, 1475, 1444]
ch3 : [2859, 2862, 2864, 2863, 2855, 2862, 2864, 2860, 2867, 2857]
ch0 : [2378, 2597, 2649, 2654, 2642, 2651, 2628, 2658, 2655, 2554]
ch1 : [2481, 2467, 2472, 2471, 2484, 2486, 2480, 2501, 2495, 2486]
ch2 : [1454, 1465, 1466, 1463, 1462, 1459, 1461, 1447, 1444, 1458]
ch3 : [2873, 2868, 2865, 2863, 2860, 2861, 2858, 2860, 2862, 2865]
ch0 : [2649, 2645, 2653, 2657, 2632, 2662, 2668, 2366, 2584, 2653]
ch1 : [2477, 2490, 2491, 2497, 2504, 2500, 2531, 2520, 2507, 2518]
ch2 : [1460, 1460, 1462, 1461, 1459, 1459, 1442, 1453, 1478, 1468]
ch3 : [2863, 2860, 2867, 2861, 2861, 2873, 2858, 2863, 2864, 2864]
ch0 : [2656, 2661, 2633, 2620, 2668, 2646, 2572, 2650, 2656, 2663]
ch1 : [2521, 2537, 2538, 2537, 2555, 2555, 2554, 2546, 2546, 2542]
ch2 : [1454, 1457, 1457, 1460, 1446, 1430, 1458, 1465, 1460, 1463]
ch3 : [2867, 2859, 2862, 2862, 2861, 2867, 2862, 2865, 2861, 2860]
ch0 : [2660, 2635, 2651, 2668, 2368, 2598, 2655, 2658, 2663, 2624]
ch1 : [2558, 2555, 2557, 2564, 2560, 2542, 2543, 2538, 2543, 2553]
ch2 : [1461, 1461, 1456, 1443, 1453, 1459, 1465, 1460, 1459, 1457]
ch3 : [2860, 2870, 2864, 2860, 2860, 2864, 2866, 2863, 2855, 2859]
ch0 : [2637, 2671, 2670, 2547, 2645, 2645, 2660, 2644, 2619, 2625]
ch1 : [2535, 2541, 2548, 2527, 2522, 2522, 2519, 2519, 2525, 2521]
ch2 : [1458, 1437, 1431, 1459, 1462, 1464, 1465, 1462, 1459, 1459]
ch3 : [2857, 2859, 2863, 2862, 2861, 2859, 2859, 2861, 2861, 2861]
ch0 : [2669, 2329, 2575, 2645, 2664, 2655, 2631, 2643, 2666, 2662]
ch1 : [2535, 2532, 2514, 2509, 2513, 2516, 2518, 2517, 2523, 2529]
ch2 : [1444, 1448, 1460, 1467, 1460, 1456, 1460, 1459, 1447, 1446]
ch3 : [2860, 2860, 2862, 2860, 2862, 2860, 2857, 2860, 2858, 2862]
ch0 : [2517, 2635, 2643, 2640, 2650, 2610, 2589, 2673, 2342, 2561]
ch1 : [2512, 2504, 2504, 2500, 2507, 2511, 2504, 2518, 2519, 2500]
ch2 : [1466, 1451, 1464, 1461, 1460, 1465, 1456, 1463, 1434, 1466]
ch3 : [2864, 2864, 2857, 2861, 2859, 2859, 2864, 2859, 2861, 2860]
ch0 : [2648, 2651, 2657, 2616, 2631, 2661, 2644, 2503, 2641, 2646]
ch1 : [2496, 2497, 2504, 2504, 2503, 2505, 2517, 2502, 2499, 2495]
ch2 : [1467, 1462, 1461, 1456, 1465, 1448, 1446, 1462, 1466, 1464]
ch3 : [2872, 2863, 2861, 2855, 2858, 2864, 2859, 2865, 2860, 2863]
ch0 : [2628, 2641, 2661, 2658, 2500, 2627, 2649, 2655, 2649, 2613]
ch1 : [2506, 2494, 2508, 2517, 2508, 2498, 2499, 2500, 2506, 2505]
ch2 : [1460, 1460, 1453, 1450, 1458, 1464, 1462, 1462, 1461, 1460]
ch3 : [2854, 2858, 2861, 2860, 2865, 2863, 2864, 2861, 2864, 2861]
ch0 : [2576, 2655, 2498, 2555, 2641, 2652, 2653, 2614, 2641, 2657]
ch1 : [2491, 2522, 2520, 2497, 2496, 2499, 2508, 2507, 2506, 2505]
ch2 : [1456, 1458, 1444, 1463, 1465, 1464, 1459, 1459, 1449, 1451]
ch3 : [2863, 2860, 2860, 2864, 2868, 2863, 2861, 2859, 2859, 2861]
ch0 : [2655, 2493, 2628, 2653, 2647, 2652, 2628, 2583, 2662, 2550]
ch1 : [2516, 2507, 2502, 2495, 2505, 2512, 2506, 2505, 2520, 2523]
ch2 : [1442, 1455, 1465, 1465, 1462, 1462, 1461, 1460, 1443, 1443]
ch3 : [2860, 2864, 2866, 2867, 2849, 2863, 2863, 2864, 2859, 2861]
ch0 : [2537, 2649, 2656, 2656, 2633, 2644, 2657, 2659, 2464, 2620]
ch1 : [2499, 2495, 2504, 2508, 2508, 2506, 2507, 2518, 2513, 2501]
ch2 : [1463, 1470, 1464, 1458, 1460, 1442, 1458, 1446, 1455, 1466]
ch3 : [2859, 2868, 2861, 2862, 2860, 2861, 2861, 2864, 2867, 2865]
ch0 : [2646, 2649, 2655, 2614, 2587, 2667, 2633, 2520, 2649, 2651]
ch1 : [2500, 2505, 2503, 2509, 2505, 2517, 2510, 2502, 2494, 2500]
ch2 : [1464, 1458, 1461, 1460, 1460, 1447, 1442, 1465, 1465, 1465]
ch3 : [2864, 2860, 2864, 2859, 2865, 2872, 2858, 2864, 2865, 2876]
ch0 : [2655, 2629, 2638, 2655, 2661, 2466, 2635, 2647, 2651, 2659]
ch1 : [2505, 2506, 2504, 2506, 2514, 2506, 2496, 2495, 2492, 2498]
ch2 : [1459, 1462, 1457, 1462, 1444, 1455, 1466, 1467, 1457, 1462]
ch3 : [2869, 2855, 2859, 2848, 2863, 2865, 2863, 2865, 2863, 2858]
ch0 : [2641, 2595, 2655, 2628, 2522, 2642, 2650, 2654, 2639, 2645]
ch1 : [2495, 2500, 2511, 2512, 2492, 2489, 2487, 2494, 2500, 2495]
ch2 : [1465, 1461, 1454, 1445, 1459, 1467, 1477, 1476, 1462, 1459]
ch3 : [2860, 2859, 2861, 2858, 2861, 2862, 2863, 2861, 2858, 2857]
ch0 : [2667, 2664, 2455, 2619, 2649, 2646, 2653, 2645, 2597, 2659]
ch1 : [2493, 2508, 2498, 2487, 2490, 2489, 2489, 2491, 2491, 2500]
ch2 : [1459, 1447, 1455, 1468, 1460, 1462, 1462, 1461, 1464, 1448]
ch3 : [2860, 2859, 2862, 2862, 2862, 2861, 2856, 2861, 2859, 2856]
ch0 : [2636, 2510, 2645, 2651, 2661, 2650, 2647, 2663, 2665, 2440]
ch1 : [2507, 2485, 2475, 2482, 2487, 2487, 2486, 2485, 2501, 2498]
ch2 : [1455, 1452, 1467, 1464, 1460, 1462, 1459, 1459, 1446, 1453]
ch3 : [2853, 2862, 2856, 2859, 2860, 2853, 2854, 2864, 2860, 2859]
ch0 : [2604, 2654, 2642, 2652, 2630, 2606, 2668, 2604, 2493, 2628]
ch1 : [2468, 2478, 2472, 2483, 2480, 2486, 2491, 2493, 2477, 2475]
ch2 : [1459, 1466, 1456, 1466, 1460, 1460, 1447, 1443, 1459, 1464]
ch3 : [2863, 2861, 2857, 2857, 2851, 2854, 2860, 2855, 2861, 2862]
ch0 : [2652, 2656, 2645, 2627, 2659, 2664, 2424, 2591, 2644, 2643]
ch1 : [2477, 2476, 2491, 2481, 2474, 2494, 2492, 2471, 2472, 2475]
ch2 : [1467, 1459, 1448, 1457, 1456, 1444, 1448, 1465, 1457, 1461]
ch3 : [2863, 2859, 2860, 2871, 2859, 2864, 2863, 2862, 2863, 2872]
ch0 : [2639, 2635, 2600, 2649, 2655, 2470, 2615, 2652, 2656, 2646]
ch1 : [2476, 2473, 2476, 2483, 2490, 2472, 2464, 2465, 2472, 2477]
ch2 : [1462, 1455, 1459, 1447, 1443, 1456, 1459, 1463, 1459, 1460]
ch3 : [2861, 2861, 2858, 2854, 2858, 2860, 2859, 2861, 2860, 2857]
ch0 : [2620, 2656, 2661, 2436, 2598, 2650, 2648, 2649, 2629, 2610]
ch1 : [2471, 2469, 2478, 2483, 2465, 2462, 2463, 2467, 2468, 2471]
ch2 : [1457, 1459, 1456, 1452, 1462, 1466, 1462, 1463, 1464, 1461]
ch3 : [2857, 2854, 2857, 2864, 2862, 2859, 2863, 2858, 2858, 2861]
ch0 : [2656, 2640, 2464, 2618, 2649, 2659, 2656, 2623, 2641, 2655]
ch1 : [2476, 2485, 2461, 2460, 2459, 2463, 2467, 2466, 2463, 2477]
ch2 : [1441, 1443, 1456, 1473, 1458, 1462, 1463, 1452, 1455, 1441]
ch3 : [2864, 2844, 2861, 2863, 2864, 2862, 2856, 2861, 2859, 2862]
ch0 : [2476, 2603, 2651, 2647, 2653, 2624, 2619, 2659, 2665, 2458]
ch1 : [2475, 2460, 2446, 2458, 2455, 2468, 2463, 2468, 2477, 2460]
ch2 : [1449, 1464, 1465, 1463, 1460, 1462, 1459, 1456, 1441, 1461]
ch3 : [2865, 2865, 2865, 2859, 2855, 2868, 2860, 2861, 2854, 2864]
ch0 : [2623, 2639, 2656, 2651, 2635, 2626, 2660, 2547, 2590, 2637]
ch1 : [2454, 2456, 2460, 2467, 2467, 2462, 2478, 2475, 2465, 2459]
ch2 : [1472, 1466, 1461, 1472, 1463, 1467, 1447, 1447, 1468, 1469]
ch3 : [2868, 2862, 2861, 2859, 2859, 2859, 2865, 2864, 2865, 2862]
ch0 : [2635, 2658, 2624, 2640, 2658, 2660, 2430, 2609, 2644, 2655]
ch1 : [2464, 2465, 2471, 2465, 2477, 2483, 2470, 2464, 2466, 2468]
ch2 : [1464, 1479, 1462, 1462, 1454, 1446, 1465, 1468, 1484, 1467]
ch3 : [2859, 2860, 2862, 2870, 2858, 2858, 2859, 2862, 2865, 2860]
ch0 : [2649, 2616, 2621, 2659, 2556, 2583, 2639, 2633, 2648, 2627]
ch1 : [2476, 2474, 2474, 2484, 2488, 2469, 2473, 2472, 2474, 2477]
ch2 : [1467, 1464, 1463, 1456, 1452, 1467, 1469, 1464, 1465, 1468]
ch3 : [2856, 2856, 2856, 2855, 2861, 2861, 2860, 2856, 2851, 2858]
ch0 : [2643, 2657, 2658, 2416, 2607, 2642, 2643, 2647, 2620, 2617]
ch1 : [2474, 2484, 2498, 2488, 2469, 2473, 2474, 2485, 2485, 2475]
ch2 : [1465, 1463, 1450, 1468, 1469, 1470, 1474, 1464, 1464, 1462]
ch3 : [2859, 2858, 2856, 2855, 2861, 2856, 2860, 2855, 2853, 2855]
ch0 : [2647, 2594, 2569, 2637, 2644, 2651, 2637, 2631, 2655, 2658]
ch1 : [2494, 2495, 2476, 2474, 2472, 2483, 2480, 2482, 2483, 2494]
ch2 : [1450, 1435, 1467, 1467, 1468, 1471, 1462, 1465, 1455, 1445]
ch3 : [2858, 2860, 2855, 2860, 2855, 2856, 2854, 2852, 2856, 2856]
ch0 : [2644, 2646, 2647, 2629, 2623, 2656, 2660, 2398, 2600, 2634]
ch1 : [2482, 2482, 2494, 2488, 2486, 2483, 2502, 2496, 2495, 2489]
ch2 : [1462, 1460, 1456, 1463, 1477, 1459, 1449, 1458, 1469, 1467]
ch3 : [2866, 2864, 2865, 2859, 2863, 2874, 2860, 2859, 2864, 2862]
ch0 : [2644, 2651, 2635, 2618, 2657, 2655, 2552, 2641, 2642, 2647]
ch1 : [2484, 2490, 2489, 2492, 2501, 2503, 2491, 2484, 2489, 2488]
ch2 : [1464, 1447, 1461, 1462, 1451, 1453, 1455, 1467, 1468, 1465]
ch3 : [2864, 2857, 2855, 2860, 2855, 2863, 2865, 2864, 2866, 2860]
ch0 : [2642, 2620, 2659, 2638, 2372, 2597, 2627, 2641, 2647, 2625]
ch1 : [2487, 2486, 2492, 2499, 2496, 2485, 2483, 2483, 2494, 2488]
ch2 : [1463, 1459, 1459, 1451, 1455, 1468, 1467, 1465, 1459, 1468]
ch3 : [2862, 2867, 2862, 2857, 2860, 2864, 2863, 2862, 2848, 2858]
ch0 : [2598, 2654, 2622, 2547, 2632, 2637, 2644, 2636, 2618, 2661]
ch1 : [2491, 2499, 2504, 2491, 2481, 2482, 2486, 2493, 2492, 2493]
ch2 : [1464, 1452, 1450, 1465, 1468, 1482, 1470, 1463, 1466, 1459]
ch3 : [2859, 2870, 2861, 2864, 2865, 2864, 2864, 2860, 2864, 2866]
ch0 : [2662, 2354, 2580, 2635, 2637, 2646, 2612, 2612, 2657, 2652]
ch1 : [2505, 2486, 2484, 2487, 2486, 2495, 2499, 2486, 2502, 2505]
ch2 : [1454, 1457, 1471, 1468, 1466, 1466, 1464, 1461, 1452, 1454]
ch3 : [2862, 2864, 2868, 2863, 2861, 2858, 2854, 2859, 2860, 2865]
ch0 : [2543, 2634, 2643, 2638, 2643, 2618, 2650, 2657, 2353, 2576]
ch1 : [2489, 2490, 2487, 2492, 2490, 2493, 2487, 2508, 2499, 2488]
ch2 : [1465, 1464, 1471, 1469, 1464, 1468, 1468, 1447, 1455, 1469]
ch3 : [2863, 2859, 2862, 2860, 2862, 2862, 2864, 2859, 2861, 2865]
ch0 : [2631, 2646, 2647, 2623, 2626, 2655, 2657, 2528, 2630, 2650]
ch1 : [2483, 2485, 2492, 2507, 2492, 2502, 2507, 2495, 2489, 2496]
ch2 : [1484, 1468, 1463, 1462, 1459, 1457, 1449, 1464, 1468, 1466]
ch3 : [2864, 2859, 2860, 2859, 2860, 2871, 2865, 2868, 2863, 2862]
ch0 : [2648, 2644, 2614, 2616, 2653, 2346, 2579, 2627, 2641, 2647]
ch1 : [2491, 2498, 2489, 2494, 2509, 2508, 2484, 2488, 2483, 2495]
ch2 : [1463, 1468, 1462, 1469, 1447, 1454, 1469, 1469, 1466, 1464]
ch3 : [2849, 2866, 2862, 2865, 2860, 2859, 2868, 2872, 2865, 2860]
ch0 : [2624, 2623, 2657, 2658, 2510, 2632, 2646, 2646, 2647, 2594]
ch1 : [2501, 2496, 2501, 2502, 2492, 2486, 2486, 2490, 2493, 2493]
ch2 : [1462, 1464, 1451, 1451, 1459, 1476, 1468, 1469, 1466, 1464]
ch3 : [2858, 2859, 2862, 2862, 2862, 2863, 2863, 2862, 2861, 2860]
ch0 : [2589, 2658, 2354, 2569, 2623, 2647, 2650, 2631, 2621, 2656]
ch1 : [2490, 2506, 2495, 2484, 2484, 2486, 2493, 2501, 2490, 2497]
ch2 : [1466, 1448, 1456, 1470, 1468, 1467, 1463, 1464, 1464, 1451]
ch3 : [2868, 2864, 2860, 2864, 2867, 2865, 2860, 2860, 2859, 2860]
ch0 : [2644, 2500, 2633, 2635, 2650, 2637, 2603, 2597, 2653, 2396]
ch1 : [2500, 2487, 2485, 2483, 2485, 2489, 2489, 2492, 2505, 2506]
ch2 : [1448, 1459, 1468, 1471, 1465, 1468, 1462, 1463, 1449, 1453]
ch3 : [2864, 2868, 2849, 2859, 2862, 2862, 2864, 2853, 2861, 2860]
ch0 : [2556, 2627, 2642, 2652, 2631, 2635, 2662, 2655, 2475, 2627]
ch1 : [2481, 2485, 2481, 2489, 2492, 2489, 2494, 2501, 2493, 2478]
ch2 : [1471, 1484, 1466, 1459, 1463, 1464, 1458, 1449, 1456, 1471]
ch3 : [2868, 2865, 2867, 2860, 2860, 2861, 2860, 2863, 2864, 2866]
ch0 : [2655, 2651, 2647, 2615, 2577, 2658, 2468, 2546, 2636, 2646]
ch1 : [2482, 2481, 2489, 2490, 2481, 2493, 2504, 2482, 2476, 2472]
ch2 : [1483, 1468, 1468, 1469, 1464, 1452, 1449, 1470, 1470, 1472]
ch3 : [2861, 2866, 2863, 2865, 2868, 2859, 2862, 2869, 2869, 2866]
ch0 : [2648, 2627, 2642, 2662, 2652, 2489, 2617, 2639, 2647, 2643]
ch1 : [2484, 2490, 2490, 2492, 2497, 2486, 2475, 2471, 2481, 2482]
ch2 : [1468, 1462, 1460, 1458, 1452, 1459, 1471, 1478, 1469, 1471]
ch3 : [2860, 2859, 2864, 2861, 2863, 2865, 2867, 2867, 2861, 2863]
ch0 : [2625, 2581, 2659, 2535, 2533, 2636, 2646, 2652, 2631, 2637]
ch1 : [2482, 2481, 2486, 2497, 2481, 2471, 2478, 2485, 2482, 2478]
ch2 : [1459, 1484, 1456, 1452, 1470, 1473, 1469, 1466, 1471, 1462]
ch3 : [2865, 2865, 2861, 2860, 2865, 2878, 2868, 2863, 2846, 2860]
ch0 : [2655, 2655, 2471, 2628, 2641, 2635, 2650, 2617, 2588, 2661]
ch1 : [2482, 2495, 2484, 2477, 2476, 2477, 2480, 2481, 2486, 2492]
ch2 : [1460, 1449, 1466, 1470, 1474, 1472, 1471, 1466, 1466, 1455]
ch3 : [2860, 2859, 2865, 2863, 2864, 2861, 2857, 2862, 2862, 2861]
ch0 : [2637, 2515, 2638, 2643, 2646, 2636, 2643, 2659, 2659, 2459]
ch1 : [2494, 2475, 2458, 2473, 2482, 2482, 2479, 2498, 2493, 2482]
ch2 : [1454, 1469, 1473, 1485, 1466, 1465, 1459, 1464, 1451, 1464]
ch3 : [2861, 2865, 2861, 2863, 2865, 2861, 2864, 2862, 2863, 2864]
ch0 : [2614, 2651, 2650, 2650, 2630, 2588, 2658, 2636, 2526, 2619]
ch1 : [2476, 2473, 2482, 2481, 2478, 2479, 2492, 2497, 2474, 2473]
ch2 : [1474, 1464, 1461, 1465, 1455, 1465, 1450, 1449, 1466, 1471]
ch3 : [2866, 2864, 2863, 2863, 2862, 2859, 2863, 2855, 2862, 2867]
ch0 : [2647, 2658, 2632, 2633, 2663, 2655, 2459, 2615, 2643, 2655]
ch1 : [2469, 2479, 2480, 2483, 2479, 2487, 2482, 2471, 2465, 2471]
ch2 : [1467, 1468, 1467, 1463, 1464, 1454, 1453, 1471, 1472, 1471]
ch3 : [2867, 2859, 2871, 2870, 2863, 2863, 2862, 2865, 2862, 2859]
ch0 : [2647, 2631, 2595, 2662, 2627, 2502, 2627, 2647, 2651, 2625]
ch1 : [2478, 2476, 2478, 2490, 2495, 2476, 2469, 2477, 2477, 2479]
ch2 : [1462, 1465, 1463, 1464, 1450, 1471, 1466, 1469, 1458, 1466]
ch3 : [2878, 2863, 2863, 2866, 2857, 2876, 2868, 2862, 2861, 2863]
ch0 : [2647, 2659, 2659, 2431, 2611, 2652, 2639, 2653, 2635, 2613]
ch1 : [2471, 2475, 2498, 2481, 2469, 2470, 2475, 2476, 2490, 2479]
ch2 : [1466, 1463, 1455, 1461, 1473, 1469, 1456, 1467, 1469, 1462]
ch3 : [2860, 2860, 2864, 2865, 2865, 2865, 2857, 2861, 2862, 2864]
ch0 : [2655, 2635, 2495, 2633, 2645, 2652, 2651, 2631, 2654, 2665]
ch1 : [2485, 2490, 2472, 2469, 2468, 2473, 2480, 2481, 2476, 2488]
ch2 : [1455, 1447, 1468, 1470, 1472, 1465, 1465, 1464, 1467, 1451]
ch3 : [2864, 2858, 2859, 2863, 2867, 2865, 2859, 2860, 2861, 2863]
ch0 : [2621, 2645, 2655, 2643, 2624, 2655, 2656, 2430, 2605, 2641]
ch1 : [2468, 2490, 2477, 2482, 2480, 2478, 2498, 2493, 2473, 2476]
ch2 : [1474, 1467, 1453, 1468, 1449, 1479, 1450, 1455, 1468, 1471]
ch3 : [2872, 2872, 2864, 2864, 2861, 2859, 2865, 2864, 2859, 2868]
ch0 : [2640, 2657, 2642, 2622, 2656, 2657, 2459, 2625, 2644, 2656]
ch1 : [2476, 2475, 2483, 2485, 2492, 2500, 2482, 2475, 2477, 2483]
ch2 : [1471, 1467, 1463, 1466, 1458, 1448, 1469, 1469, 1468, 1466]
ch3 : [2857, 2862, 2863, 2865, 2862, 2849, 2864, 2866, 2868, 2861]
ch0 : [2656, 2618, 2650, 2659, 2443, 2595, 2646, 2635, 2648, 2634]
ch1 : [2486, 2482, 2486, 2494, 2485, 2479, 2472, 2479, 2482, 2481]
ch2 : [1463, 1465, 1469, 1455, 1459, 1474, 1471, 1453, 1468, 1462]
ch3 : [2853, 2864, 2863, 2862, 2868, 2865, 2872, 2864, 2864, 2862]
ch0 : [2611, 2662, 2607, 2450, 2612, 2631, 2653, 2638, 2621, 2627]
ch1 : [2489, 2494, 2511, 2485, 2482, 2481, 2484, 2485, 2491, 2483]
ch2 : [1467, 1459, 1448, 1463, 1472, 1470, 1471, 1466, 1467, 1466]
ch3 : [2868, 2862, 2865, 2864, 2865, 2865, 2863, 2859, 2858, 2864]
ch0 : [2659, 2502, 2579, 2640, 2636, 2649, 2613, 2614, 2662, 2653]
ch1 : [2501, 2501, 2489, 2482, 2487, 2486, 2491, 2492, 2494, 2503]
ch2 : [1452, 1454, 1470, 1471, 1468, 1463, 1463, 1469, 1461, 1451]
ch3 : [2865, 2866, 2867, 2862, 2865, 2858, 2868, 2865, 2864, 2872]
ch0 : [2444, 2613, 2643, 2652, 2651, 2617, 2622, 2661, 2560, 2574]
ch1 : [2485, 2481, 2479, 2482, 2486, 2489, 2487, 2495, 2500, 2470]
ch2 : [1465, 1474, 1474, 1467, 1468, 1468, 1467, 1455, 1451, 1473]
ch3 : [2868, 2863, 2864, 2862, 2860, 2862, 2862, 2859, 2866, 2872]
ch0 : [2646, 2647, 2645, 2638, 2636, 2658, 2667, 2430, 2607, 2651]
ch1 : [2475, 2481, 2479, 2488, 2487, 2487, 2494, 2482, 2473, 2471]
ch2 : [1474, 1470, 1471, 1457, 1471, 1463, 1450, 1473, 1474, 1470]
ch3 : [2863, 2864, 2865, 2863, 2865, 2865, 2865, 2859, 2865, 2866]
ch0 : [2654, 2640, 2612, 2620, 2656, 2612, 2584, 2643, 2646, 2644]
ch1 : [2474, 2485, 2478, 2479, 2487, 2484, 2472, 2472, 2472, 2476]
ch2 : [1458, 1467, 1468, 1472, 1457, 1461, 1476, 1475, 1471, 1468]
ch3 : [2865, 2860, 2863, 2864, 2859, 2866, 2865, 2865, 2863, 2862]
ch0 : [2636, 2634, 2659, 2651, 2412, 2603, 2642, 2648, 2653, 2622]
ch1 : [2472, 2474, 2473, 2502, 2468, 2459, 2463, 2469, 2471, 2470]
ch2 : [1471, 1465, 1464, 1454, 1462, 1474, 1475, 1470, 1469, 1465]
ch3 : [2863, 2864, 2866, 2860, 2862, 2866, 2863, 2864, 2859, 2860]
ch0 : [2615, 2646, 2633, 2558, 2646, 2635, 2650, 2644, 2625, 2651]
ch1 : [2461, 2479, 2475, 2462, 2458, 2459, 2449, 2466, 2461, 2462]
ch2 : [1470, 1459, 1460, 1477, 1480, 1471, 1471, 1472, 1474, 1465]
ch3 : [2865, 2863, 2865, 2864, 2865, 2863, 2862, 2865, 2859, 2863]
ch0 : [2658, 2390, 2604, 2641, 2652, 2649, 2612, 2607, 2662, 2626]
ch1 : [2465, 2460, 2451, 2448, 2448, 2458, 2449, 2456, 2460, 2476]
ch2 : [1447, 1466, 1479, 1474, 1471, 1470, 1472, 1471, 1458, 1461]
ch3 : [2862, 2864, 2872, 2868, 2869, 2861, 2865, 2862, 2863, 2866]
ch0 : [2547, 2643, 2641, 2647, 2627, 2648, 2659, 2655, 2382, 2593]
ch1 : [2445, 2439, 2442, 2448, 2446, 2453, 2445, 2455, 2449, 2417]
ch2 : [1469, 1470, 1473, 1476, 1475, 1469, 1463, 1456, 1463, 1477]
ch3 : [2871, 2868, 2865, 2851, 2864, 2869, 2864, 2862, 2863, 2867]
ch0 : [2640, 2659, 2649, 2627, 2626, 2658, 2648, 2557, 2652, 2644]
ch1 : [2426, 2433, 2438, 2439, 2431, 2444, 2444, 2430, 2425, 2428]
ch2 : [1475, 1472, 1468, 1468, 1467, 1457, 1450, 1473, 1471, 1470]
ch3 : [2865, 2863, 2859, 2864, 2861, 2847, 2864, 2866, 2863, 2865]
ch0 : [2649, 2647, 2620, 2655, 2639, 2365, 2597, 2623, 2649, 2650]
ch1 : [2427, 2429, 2431, 2427, 2437, 2431, 2417, 2419, 2424, 2429]
ch2 : [1472, 1469, 1468, 1465, 1452, 1465, 1472, 1467, 1468, 1466]
ch3 : [2859, 2857, 2867, 2862, 2860, 2862, 2863, 2866, 2866, 2861]
ch0 : [2621, 2615, 2653, 2657, 2553, 2638, 2639, 2660, 2647, 2625]
ch1 : [2427, 2405, 2436, 2437, 2425, 2415, 2422, 2421, 2422, 2429]
ch2 : [1468, 1465, 1457, 1458, 1467, 1474, 1473, 1464, 1466, 1467]
ch3 : [2854, 2862, 2867, 2867, 2868, 2859, 2862, 2860, 2864, 2862]
ch0 : [2658, 2656, 2341, 2586, 2642, 2640, 2644, 2623, 2608, 2661]
ch1 : [2421, 2441, 2437, 2425, 2416, 2422, 2435, 2420, 2432, 2444]
ch2 : [1465, 1454, 1459, 1471, 1472, 1472, 1466, 1469, 1462, 1456]
ch3 : [2854, 2865, 2868, 2868, 2872, 2866, 2861, 2862, 2863, 2865]
ch0 : [2647, 2525, 2631, 2642, 2649, 2644, 2608, 2652, 2659, 2348]
ch1 : [2451, 2433, 2427, 2431, 2436, 2436, 2438, 2440, 2452, 2448]
ch2 : [1451, 1467, 1471, 1473, 1468, 1473, 1469, 1468, 1452, 1453]
ch3 : [2863, 2865, 2867, 2868, 2863, 2862, 2865, 2865, 2862, 2862]
ch0 : [2574, 2647, 2635, 2648, 2605, 2613, 2654, 2655, 2530, 2619]
ch1 : [2430, 2433, 2435, 2447, 2446, 2442, 2449, 2451, 2439, 2434]
ch2 : [1474, 1469, 1470, 1471, 1460, 1467, 1456, 1452, 1472, 1471]
ch3 : [2866, 2865, 2874, 2859, 2863, 2852, 2865, 2865, 2869, 2867]
ch0 : [2637, 2648, 2639, 2601, 2634, 2653, 2339, 2557, 2641, 2633]
ch1 : [2439, 2440, 2443, 2444, 2441, 2456, 2465, 2439, 2434, 2438]
ch2 : [1469, 1469, 1466, 1466, 1470, 1452, 1457, 1475, 1474, 1468]
ch3 : [2863, 2875, 2862, 2865, 2866, 2865, 2872, 2869, 2867, 2868]
ch0 : [2648, 2626, 2621, 2655, 2629, 2512, 2633, 2638, 2642, 2647]
ch1 : [2445, 2445, 2441, 2442, 2457, 2445, 2438, 2443, 2455, 2445]
ch2 : [1461, 1462, 1462, 1459, 1452, 1465, 1474, 1468, 1466, 1467]
ch3 : [2862, 2860, 2862, 2865, 2865, 2870, 2867, 2868, 2863, 2863]
ch0 : [2599, 2590, 2656, 2351, 2562, 2630, 2639, 2645, 2596, 2624]
ch1 : [2440, 2443, 2463, 2461, 2436, 2436, 2435, 2443, 2452, 2446]
ch2 : [1464, 1465, 1443, 1451, 1485, 1469, 1465, 1462, 1463, 1468]
ch3 : [2870, 2864, 2863, 2863, 2856, 2866, 2865, 2864, 2863, 2861]
ch0 : [2656, 2639, 2498, 2626, 2632, 2648, 2638, 2599, 2588, 2658]
ch1 : [2459, 2456, 2439, 2442, 2441, 2443, 2446, 2451, 2452, 2451]
ch2 : [1455, 1447, 1465, 1468, 1464, 1465, 1460, 1458, 1465, 1449]
ch3 : [2865, 2860, 2869, 2868, 2867, 2864, 2868, 2863, 2863, 2866]
ch0 : [2389, 2551, 2631, 2642, 2643, 2609, 2632, 2647, 2654, 2489]
ch1 : [2457, 2446, 2443, 2447, 2457, 2460, 2455, 2459, 2469, 2457]
ch2 : [1457, 1463, 1470, 1467, 1464, 1469, 1465, 1455, 1452, 1459]
ch3 : [2864, 2861, 2869, 2864, 2851, 2856, 2861, 2864, 2865, 2868]
ch0 : [2623, 2639, 2644, 2635, 2604, 2583, 2657, 2465, 2557, 2629]
ch1 : [2449, 2450, 2452, 2458, 2460, 2460, 2473, 2476, 2454, 2450]
ch2 : [1470, 1473, 1471, 1467, 1466, 1470, 1457, 1453, 1475, 1477]
ch3 : [2859, 2866, 2862, 2864, 2862, 2863, 2861, 2860, 2865, 2864]
ch0 : [2641, 2647, 2615, 2641, 2652, 2651, 2484, 2613, 2641, 2640]
ch1 : [2454, 2473, 2462, 2460, 2469, 2477, 2462, 2455, 2458, 2460]
ch2 : [1464, 1468, 1467, 1468, 1459, 1450, 1468, 1471, 1474, 1468]
ch3 : [2865, 2860, 2861, 2864, 2859, 2864, 2863, 2858, 2868, 2863]
ch0 : [2647, 2612, 2579, 2653, 2520, 2524, 2629, 2636, 2645, 2623]
ch1 : [2476, 2463, 2468, 2475, 2479, 2454, 2470, 2456, 2465, 2470]
ch2 : [1471, 1467, 1468, 1454, 1453, 1470, 1475, 1468, 1467, 1462]
ch3 : [2856, 2860, 2864, 2858, 2863, 2864, 2864, 2866, 2859, 2860]
ch0 : [2625, 2650, 2648, 2461, 2607, 2644, 2638, 2642, 2620, 2577]
ch1 : [2467, 2472, 2479, 2474, 2459, 2468, 2466, 2471, 2483, 2474]
ch2 : [1467, 1464, 1458, 1461, 1472, 1476, 1466, 1473, 1467, 1469]
ch3 : [2861, 2864, 2865, 2869, 2865, 2866, 2865, 2863, 2863, 2863]
ch0 : [2647, 2573, 2516, 2612, 2625, 2644, 2605, 2632, 2658, 2656]
ch1 : [2487, 2497, 2468, 2467, 2472, 2477, 2485, 2481, 2482, 2494]
ch2 : [1454, 1434, 1471, 1471, 1467, 1462, 1467, 1467, 1463, 1461]
ch3 : [2859, 2865, 2859, 2872, 2867, 2864, 2861, 2863, 2862, 2867]
ch0 : [2620, 2641, 2647, 2642, 2615, 2647, 2652, 2452, 2615, 2643]
ch1 : [2477, 2486, 2497, 2495, 2491, 2494, 2510, 2505, 2486, 2491]
ch2 : [1470, 1472, 1454, 1470, 1470, 1457, 1455, 1463, 1474, 1471]
ch3 : [2868, 2867, 2864, 2861, 2859, 2860, 2865, 2867, 2862, 2863]
ch0 : [2630, 2642, 2616, 2577, 2655, 2637, 2490, 2620, 2642, 2643]
ch1 : [2488, 2496, 2497, 2503, 2510, 2517, 2494, 2493, 2493, 2499]
ch2 : [1476, 1469, 1470, 1472, 1455, 1447, 1473, 1475, 1472, 1469]
ch3 : [2872, 2860, 2861, 2862, 2854, 2855, 2862, 2865, 2863, 2858]
ch0 : [2620, 2620, 2656, 2653, 2424, 2600, 2641, 2630, 2649, 2628]
ch1 : [2506, 2501, 2499, 2513, 2507, 2496, 2493, 2482, 2500, 2507]
ch2 : [1474, 1469, 1468, 1455, 1462, 1475, 1473, 1474, 1469, 1471]
ch3 : [2852, 2857, 2860, 2861, 2863, 2862, 2860, 2864, 2859, 2860]
ch0 : [2594, 2651, 2646, 2487, 2628, 2640, 2652, 2638, 2640, 2656]
ch1 : [2503, 2511, 2521, 2499, 2487, 2498, 2502, 2507, 2503, 2503]
ch2 : [1472, 1461, 1455, 1469, 1475, 1476, 1472, 1464, 1465, 1469]
ch3 : [2861, 2858, 2856, 2861, 2872, 2865, 2864, 2861, 2854, 2847]
ch0 : [2658, 2410, 2593, 2640, 2645, 2646, 2626, 2594, 2657, 2657]
ch1 : [2515, 2513, 2500, 2501, 2502, 2503, 2512, 2501, 2503, 2524]
ch2 : [1454, 1462, 1475, 1475, 1476, 1471, 1474, 1470, 1464, 1454]
ch3 : [2856, 2859, 2859, 2855, 2860, 2855, 2857, 2851, 2846, 2851]
ch0 : [2475, 2612, 2642, 2651, 2638, 2612, 2649, 2658, 2426, 2588]
ch1 : [2506, 2502, 2505, 2516, 2517, 2510, 2514, 2524, 2527, 2515]
ch2 : [1475, 1475, 1473, 1472, 1466, 1467, 1465, 1458, 1465, 1476]
ch3 : [2871, 2860, 2855, 2857, 2857, 2858, 2857, 2850, 2858, 2873]
ch0 : [2641, 2631, 2646, 2619, 2597, 2657, 2642, 2461, 2612, 2634]
ch1 : [2513, 2513, 2521, 2523, 2527, 2532, 2543, 2521, 2519, 2522]
ch2 : [1474, 1471, 1471, 1469, 1470, 1462, 1454, 1470, 1476, 1476]
ch3 : [2864, 2861, 2856, 2859, 2851, 2850, 2856, 2856, 2864, 2870]
ch0 : [2647, 2640, 2621, 2647, 2653, 2473, 2592, 2633, 2628, 2639]
ch1 : [2524, 2532, 2532, 2524, 2540, 2541, 2526, 2521, 2526, 2523]
ch2 : [1469, 1468, 1471, 1465, 1461, 1458, 1477, 1474, 1474, 1470]
ch3 : [2859, 2857, 2854, 2858, 2856, 2868, 2864, 2857, 2842, 2843]
ch0 : [2608, 2603, 2656, 2654, 2432, 2609, 2641, 2648, 2642, 2609]
ch1 : [2526, 2527, 2531, 2549, 2531, 2517, 2517, 2526, 2529, 2527]
ch2 : [1468, 1469, 1463, 1453, 1472, 1480, 1472, 1471, 1471, 1469]
ch3 : [2848, 2865, 2865, 2856, 2853, 2854, 2848, 2849, 2826, 2834]
ch0 : [2654, 2429, 2593, 2636, 2648, 2641, 2604, 2613, 2655, 2537]
ch1 : [2543, 2527, 2517, 2519, 2517, 2526, 2523, 2521, 2531, 2533]
ch2 : [1455, 1465, 1473, 1475, 1469, 1465, 1470, 1478, 1450, 1453]
ch3 : [2833, 2846, 2838, 2841, 2847, 2853, 2845, 2847, 2840, 2843]
ch0 : [2579, 2635, 2636, 2643, 2628, 2637, 2648, 2654, 2428, 2596]
ch1 : [2513, 2516, 2514, 2516, 2517, 2519, 2515, 2530, 2518, 2503]
ch2 : [1467, 1469, 1468, 1465, 1468, 1467, 1455, 1452, 1457, 1471]
ch3 : [2846, 2839, 2838, 2836, 2832, 2827, 2835, 2830, 2844, 2845]
ch0 : [2639, 2641, 2644, 2606, 2604, 2649, 2592, 2559, 2643, 2628]
ch1 : [2505, 2502, 2516, 2513, 2498, 2517, 2517, 2503, 2499, 2513]
ch2 : [1468, 1464, 1464, 1464, 1466, 1452, 1448, 1471, 1468, 1467]
ch3 : [2840, 2834, 2826, 2824, 2820, 2826, 2838, 2832, 2828, 2831]
ch0 : [2637, 2619, 2609, 2656, 2644, 2391, 2587, 2640, 2648, 2637]
ch1 : [2500, 2502, 2500, 2502, 2512, 2496, 2486, 2498, 2484, 2498]
ch2 : [1465, 1467, 1464, 1463, 1448, 1462, 1467, 1466, 1460, 1463]
ch3 : [2832, 2832, 2832, 2834, 2824, 2828, 2825, 2828, 2818, 2820]
ch0 : [2646, 2656, 2363, 2586, 2641, 2640, 2648, 2609, 2597, 2652]
ch1 : [2483, 2494, 2488, 2473, 2473, 2472, 2471, 2478, 2464, 2480]
ch2 : [1461, 1442, 1460, 1471, 1468, 1464, 1462, 1463, 1459, 1451]
ch3 : [2809, 2807, 2805, 2799, 2803, 2812, 2809, 2806, 2802, 2800]
ch0 : [2639, 2552, 2632, 2635, 2638, 2619, 2622, 2647, 2645, 2349]
ch1 : [2483, 2467, 2465, 2463, 2463, 2445, 2464, 2465, 2473, 2468]
ch2 : [1449, 1463, 1466, 1466, 1463, 1463, 1467, 1462, 1450, 1454]
ch3 : [2803, 2800, 2803, 2796, 2795, 2801, 2806, 2803, 2788, 2784]
ch0 : [2568, 2620, 2634, 2645, 2602, 2568, 2646, 2644, 2525, 2622]
ch1 : [2464, 2452, 2448, 2457, 2452, 2451, 2453, 2465, 2446, 2436]
ch2 : [1462, 1470, 1471, 1460, 1464, 1467, 1447, 1449, 1463, 1466]
ch3 : [2785, 2789, 2787, 2784, 2787, 2786, 2779, 2782, 2766, 2771]
ch0 : [2615, 2636, 2634, 2611, 2642, 2640, 2311, 2550, 2610, 2627]
ch1 : [2441, 2442, 2446, 2435, 2443, 2452, 2461, 2429, 2429, 2429]
ch2 : [1473, 1462, 1466, 1466, 1466, 1452, 1457, 1470, 1468, 1467]
ch3 : [2767, 2784, 2777, 2781, 2768, 2764, 2768, 2780, 2778, 2777]
ch0 : [2629, 2585, 2592, 2640, 2632, 2492, 2591, 2593, 2614, 2597]
ch1 : [2435, 2433, 2429, 2434, 2438, 2422, 2412, 2412, 2416, 2428]
ch2 : [1469, 1465, 1471, 1456, 1450, 1469, 1476, 1472, 1470, 1466]
ch3 : [2772, 2769, 2770, 2772, 2775, 2775, 2763, 2774, 2768, 2771]
ch0 : [2595, 2634, 2639, 2299, 2537, 2618, 2622, 2628, 2628, 2611]
ch1 : [2413, 2411, 2425, 2422, 2401, 2401, 2406, 2412, 2408, 2411]
ch2 : [1467, 1480, 1449, 1460, 1476, 1475, 1473, 1452, 1469, 1469]
ch3 : [2770, 2764, 2758, 2752, 2748, 2768, 2765, 2755, 2747, 2747]
ch0 : [2639, 2641, 2528, 2628, 2633, 2632, 2635, 2603, 2577, 2646]
ch1 : [2419, 2426, 2415, 2415, 2416, 2416, 2421, 2428, 2428, 2444]
ch2 : [1460, 1457, 1475, 1474, 1475, 1477, 1467, 1479, 1472, 1467]
ch3 : [2751, 2751, 2751, 2751, 2750, 2747, 2748, 2752, 2751, 2748]
ch0 : [2317, 2556, 2626, 2633, 2642, 2613, 2600, 2649, 2633, 2510]
ch1 : [2447, 2436, 2424, 2433, 2442, 2447, 2450, 2453, 2464, 2457]
ch2 : [1460, 1459, 1482, 1475, 1475, 1473, 1475, 1468, 1459, 1474]
ch3 : [2745, 2748, 2754, 2752, 2742, 2742, 2739, 2739, 2737, 2740]
ch0 : [2629, 2635, 2578, 2612, 2647, 2603, 2477, 2607, 2623, 2634]
ch1 : [2471, 2481, 2479, 2484, 2493, 2504, 2493, 2488, 2492, 2504]
ch2 : [1477, 1479, 1472, 1478, 1471, 1464, 1477, 1482, 1484, 1478]
ch3 : [2734, 2730, 2728, 2731, 2732, 2731, 2737, 2734, 2733, 2731]
ch0 : [2641, 2609, 2559, 2642, 2402, 2544, 2599, 2629, 2630, 2599]
ch1 : [2503, 2508, 2507, 2525, 2525, 2504, 2507, 2505, 2518, 2523]
ch2 : [1481, 1480, 1479, 1463, 1466, 1484, 1486, 1487, 1483, 1481]
ch3 : [2729, 2737, 2732, 2723, 2728, 2744, 2730, 2734, 2732, 2725]
ch0 : [2616, 2640, 2630, 2456, 2622, 2626, 2632, 2636, 2593, 2553]
ch1 : [2528, 2532, 2541, 2526, 2525, 2524, 2525, 2535, 2539, 2535]
ch2 : [1492, 1479, 1471, 1484, 1491, 1495, 1488, 1493, 1489, 1496]
ch3 : [2731, 2736, 2733, 2737, 2729, 2732, 2740, 2732, 2729, 2731]
ch0 : [2652, 2471, 2528, 2630, 2628, 2637, 2600, 2607, 2650, 2637]
ch1 : [2541, 2557, 2535, 2530, 2536, 2535, 2542, 2544, 2545, 2550]
ch2 : [1476, 1476, 1494, 1498, 1494, 1492, 1498, 1495, 1490, 1479]
ch3 : [2726, 2724, 2733, 2733, 2731, 2725, 2724, 2727, 2727, 2730]
ch0 : [2450, 2591, 2642, 2632, 2634, 2604, 2564, 2643, 2520, 2488]
ch1 : [2540, 2534, 2540, 2540, 2541, 2542, 2541, 2550, 2552, 2531]
ch2 : [1492, 1508, 1502, 1498, 1495, 1496, 1497, 1486, 1475, 1498]
ch3 : [2732, 2730, 2732, 2730, 2730, 2729, 2729, 2726, 2726, 2733]
ch0 : [2624, 2629, 2628, 2577, 2609, 2643, 2639, 2435, 2601, 2619]
ch1 : [2528, 2531, 2539, 2543, 2539, 2541, 2553, 2545, 2532, 2533]
ch2 : [1502, 1498, 1495, 1494, 1493, 1489, 1479, 1495, 1497, 1497]
ch3 : [2729, 2743, 2729, 2731, 2726, 2732, 2734, 2733, 2738, 2738]
ch0 : [2633, 2625, 2593, 2558, 2634, 2582, 2506, 2607, 2629, 2645]
ch1 : [2536, 2530, 2539, 2536, 2543, 2556, 2533, 2529, 2528, 2533]
ch2 : [1490, 1493, 1492, 1502, 1474, 1477, 1491, 1494, 1489, 1491]
ch3 : [2740, 2736, 2735, 2741, 2737, 2736, 2742, 2744, 2739, 2745]
ch0 : [2615, 2624, 2641, 2631, 2419, 2601, 2629, 2618, 2631, 2615]
ch1 : [2534, 2529, 2533, 2539, 2530, 2520, 2503, 2515, 2521, 2521]
ch2 : [1486, 1490, 1482, 1471, 1487, 1487, 1490, 1489, 1487, 1485]
ch3 : [2735, 2741, 2748, 2749, 2748, 2747, 2746, 2749, 2752, 2748]
ch0 : [2571, 2642, 2636, 2491, 2611, 2629, 2636, 2609, 2615, 2639]
ch1 : [2511, 2519, 2523, 2503, 2494, 2499, 2508, 2506, 2503, 2503]
ch2 : [1486, 1475, 1467, 1486, 1491, 1487, 1486, 1484, 1487, 1479]
ch3 : [2749, 2744, 2748, 2754, 2753, 2747, 2752, 2747, 2751, 2753]
ch0 : [2638, 2425, 2581, 2622, 2634, 2637, 2612, 2584, 2642, 2635]
ch1 : [2511, 2508, 2491, 2488, 2492, 2491, 2476, 2497, 2502, 2504]
ch2 : [1474, 1479, 1481, 1487, 1485, 1484, 1478, 1487, 1472, 1466]
ch3 : [2757, 2759, 2760, 2756, 2756, 2755, 2757, 2759, 2759, 2759]
ch0 : [2488, 2609, 2630, 2638, 2636, 2616, 2644, 2638, 2422, 2603]
ch1 : [2489, 2475, 2479, 2486, 2487, 2484, 2481, 2492, 2483, 2471]
ch2 : [1483, 1485, 1482, 1470, 1486, 1479, 1480, 1464, 1481, 1489]
ch3 : [2767, 2768, 2763, 2762, 2758, 2764, 2760, 2766, 2766, 2766]
ch0 : [2636, 2640, 2621, 2631, 2587, 2646, 2622, 2474, 2620, 2640]
ch1 : [2476, 2476, 2477, 2482, 2481, 2488, 2495, 2478, 2468, 2472]
ch2 : [1483, 1485, 1480, 1484, 1481, 1477, 1461, 1482, 1490, 1485]
ch3 : [2761, 2768, 2761, 2767, 2768, 2765, 2765, 2768, 2769, 2771]
ch0 : [2644, 2628, 2613, 2646, 2651, 2416, 2583, 2631, 2624, 2643]
ch1 : [2473, 2481, 2475, 2473, 2493, 2482, 2477, 2469, 2473, 2478]
ch2 : [1475, 1484, 1479, 1480, 1472, 1469, 1484, 1479, 1478, 1477]
ch3 : [2768, 2767, 2769, 2772, 2774, 2773, 2775, 2773, 2775, 2773]
ch0 : [2615, 2606, 2648, 2614, 2448, 2607, 2632, 2644, 2639, 2603]
ch1 : [2479, 2474, 2487, 2496, 2478, 2472, 2472, 2489, 2479, 2481]
ch2 : [1482, 1481, 1471, 1461, 1480, 1484, 1488, 1478, 1478, 1481]
ch3 : [2775, 2775, 2778, 2773, 2777, 2780, 2779, 2779, 2763, 2771]
ch0 : [2642, 2658, 2423, 2586, 2632, 2629, 2637, 2629, 2602, 2650]
ch1 : [2476, 2486, 2488, 2469, 2471, 2467, 2470, 2477, 2483, 2483]
ch2 : [1483, 1468, 1468, 1489, 1487, 1485, 1480, 1479, 1481, 1468]
ch3 : [2777, 2781, 2783, 2782, 2778, 2782, 2784, 2781, 2784, 2784]
ch0 : [2652, 2455, 2604, 2641, 2643, 2641, 2617, 2642, 2657, 2511]
ch1 : [2491, 2469, 2463, 2468, 2465, 2474, 2474, 2469, 2477, 2480]
ch2 : [1460, 1470, 1481, 1479, 1478, 1485, 1484, 1477, 1459, 1465]
ch3 : [2781, 2785, 2789, 2786, 2780, 2782, 2781, 2784, 2785, 2783]
ch0 : [2591, 2643, 2636, 2637, 2629, 2621, 2654, 2654, 2456, 2615]
ch1 : [2453, 2463, 2465, 2469, 2468, 2467, 2474, 2482, 2468, 2457]
ch2 : [1483, 1482, 1483, 1479, 1478, 1479, 1473, 1460, 1475, 1484]
ch3 : [2792, 2786, 2787, 2784, 2783, 2791, 2787, 2788, 2789, 2792]
ch0 : [2641, 2650, 2646, 2617, 2625, 2654, 2569, 2582, 2646, 2635]
ch1 : [2454, 2460, 2449, 2465, 2455, 2470, 2463, 2455, 2455, 2454]
ch2 : [1479, 1473, 1477, 1479, 1476, 1459, 1462, 1479, 1481, 1482]
ch3 : [2794, 2790, 2787, 2788, 2783, 2787, 2797, 2797, 2796, 2796]
ch0 : [2644, 2624, 2653, 2656, 2654, 2430, 2603, 2648, 2647, 2653]
ch1 : [2457, 2463, 2463, 2465, 2477, 2465, 2448, 2453, 2459, 2460]
ch2 : [1477, 1476, 1477, 1468, 1458, 1474, 1481, 1477, 1478, 1475]
ch3 : [2791, 2787, 2788, 2797, 2792, 2793, 2801, 2797, 2796, 2791]
ch0 : [2621, 2616, 2661, 2603, 2563, 2637, 2631, 2643, 2628, 2618]
ch1 : [2459, 2459, 2469, 2475, 2454, 2449, 2453, 2460, 2456, 2461]
ch2 : [1469, 1475, 1463, 1463, 1467, 1480, 1481, 1477, 1486, 1478]
ch3 : [2794, 2797, 2800, 2797, 2799, 2801, 2798, 2791, 2800, 2794]
ch0 : [2659, 2654, 2397, 2578, 2635, 2626, 2648, 2619, 2604, 2653]
ch1 : [2457, 2473, 2473, 2448, 2446, 2451, 2444, 2459, 2447, 2467]
ch2 : [1476, 1465, 1474, 1486, 1483, 1478, 1479, 1478, 1478, 1464]
ch3 : [2790, 2794, 2796, 2799, 2802, 2799, 2793, 2792, 2797, 2795]
ch0 : [2632, 2550, 2639, 2637, 2639, 2638, 2628, 2636, 2646, 2391]
ch1 : [2470, 2447, 2448, 2453, 2451, 2454, 2455, 2458, 2479, 2459]
ch2 : [1464, 1480, 1477, 1485, 1484, 1478, 1479, 1472, 1462, 1473]
ch3 : [2799, 2801, 2794, 2802, 2798, 2798, 2800, 2800, 2799, 2798]
ch0 : [2594, 2637, 2645, 2649, 2620, 2612, 2652, 2647, 2539, 2635]
ch1 : [2448, 2449, 2448, 2453, 2456, 2453, 2468, 2463, 2449, 2446]
ch2 : [1484, 1484, 1479, 1479, 1481, 1478, 1467, 1464, 1479, 1486]
ch3 : [2800, 2803, 2801, 2797, 2797, 2799, 2798, 2803, 2804, 2804]
ch0 : [2638, 2641, 2632, 2615, 2648, 2656, 2364, 2586, 2635, 2645]
ch1 : [2446, 2452, 2455, 2454, 2455, 2472, 2465, 2452, 2453, 2452]
ch2 : [1478, 1479, 1481, 1482, 1477, 1459, 1474, 1488, 1483, 1485]
ch3 : [2804, 2804, 2801, 2803, 2805, 2801, 2798, 2804, 2805, 2803]
ch0 : [2646, 2621, 2605, 2656, 2626, 2544, 2626, 2639, 2645, 2632]
ch1 : [2447, 2445, 2457, 2466, 2475, 2458, 2468, 2443, 2464, 2471]
ch2 : [1479, 1479, 1479, 1468, 1466, 1478, 1489, 1482, 1484, 1488]
ch3 : [2800, 2805, 2801, 2794, 2806, 2808, 2806, 2808, 2805, 2807]
ch0 : [2623, 2652, 2652, 2352, 2567, 2634, 2642, 2649, 2613, 2621]
ch1 : [2467, 2478, 2483, 2481, 2479, 2468, 2475, 2480, 2478, 2478]
ch2 : [1482, 1478, 1461, 1471, 1485, 1492, 1482, 1478, 1479, 1480]
ch3 : [2808, 2799, 2803, 2803, 2810, 2810, 2811, 2804, 2803, 2806]
ch0 : [2651, 2651, 2535, 2629, 2634, 2645, 2641, 2617, 2648, 2654]
ch1 : [2488, 2496, 2482, 2471, 2483, 2485, 2493, 2491, 2490, 2514]
ch2 : [1470, 1464, 1484, 1482, 1482, 1480, 1480, 1476, 1483, 1463]
ch3 : [2808, 2808, 2810, 2813, 2805, 2803, 2808, 2808, 2808, 2809]
ch0 : [2349, 2572, 2637, 2640, 2647, 2618, 2616, 2660, 2648, 2523]
ch1 : [2506, 2485, 2488, 2495, 2501, 2504, 2506, 2512, 2518, 2506]
ch2 : [1473, 1484, 1488, 1481, 1475, 1485, 1478, 1468, 1466, 1480]
ch3 : [2808, 2812, 2799, 2808, 2808, 2793, 2800, 2810, 2804, 2810]
ch0 : [2623, 2638, 2648, 2636, 2607, 2618, 2652, 2302, 2575, 2622]
ch1 : [2491, 2504, 2508, 2511, 2521, 2508, 2517, 2521, 2502, 2506]
ch2 : [1486, 1482, 1479, 1481, 1484, 1479, 1468, 1470, 1487, 1482]
ch3 : [2812, 2812, 2796, 2813, 2810, 2812, 2803, 2808, 2813, 2811]
ch0 : [2639, 2592, 2576, 2650, 2316, 2546, 2640, 2637, 2645, 2624]
ch1 : [2515, 2514, 2520, 2527, 2527, 2507, 2505, 2511, 2515, 2515]
ch2 : [1479, 1479, 1475, 1467, 1468, 1486, 1486, 1484, 1481, 1487]
ch3 : [2807, 2807, 2814, 2811, 2813, 2818, 2815, 2814, 2811, 2813]
ch0 : [2618, 2656, 2649, 2486, 2618, 2641, 2648, 2644, 2582, 2593]
ch1 : [2509, 2521, 2528, 2512, 2506, 2506, 2508, 2512, 2508, 2507]
ch2 : [1478, 1470, 1467, 1478, 1489, 1485, 1482, 1482, 1483, 1481]
ch3 : [2812, 2811, 2810, 2815, 2815, 2811, 2815, 2815, 2814, 2811]
ch0 : [2648, 2359, 2550, 2607, 2634, 2638, 2616, 2618, 2651, 2646]
ch1 : [2522, 2526, 2500, 2503, 2501, 2503, 2509, 2506, 2508, 2517]
ch2 : [1466, 1471, 1487, 1486, 1484, 1483, 1480, 1480, 1474, 1472]
ch3 : [2810, 2813, 2815, 2812, 2820, 2799, 2808, 2808, 2814, 2813]
ch0 : [2491, 2626, 2632, 2639, 2635, 2595, 2571, 2650, 2430, 2545]
ch1 : [2499, 2499, 2495, 2505, 2486, 2500, 2499, 2514, 2514, 2495]
ch2 : [1472, 1487, 1486, 1491, 1487, 1485, 1486, 1465, 1464, 1486]
ch3 : [2800, 2813, 2814, 2818, 2811, 2811, 2816, 2814, 2813, 2819]
ch0 : [2618, 2636, 2638, 2605, 2630, 2632, 2650, 2467, 2612, 2638]
ch1 : [2491, 2493, 2503, 2501, 2502, 2505, 2510, 2497, 2492, 2491]
ch2 : [1490, 1490, 1485, 1481, 1481, 1472, 1473, 1475, 1488, 1489]
ch3 : [2821, 2819, 2816, 2815, 2814, 2815, 2808, 2818, 2819, 2819]
ch0 : [2639, 2638, 2605, 2563, 2649, 2491, 2517, 2621, 2637, 2641]
ch1 : [2493, 2500, 2500, 2499, 2508, 2514, 2491, 2490, 2491, 2492]
ch2 : [1486, 1474, 1476, 1484, 1473, 1465, 1483, 1484, 1486, 1478]
ch3 : [2815, 2815, 2818, 2817, 2817, 2812, 2823, 2821, 2822, 2818]
ch0 : [2618, 2627, 2656, 2638, 2482, 2616, 2640, 2634, 2645, 2605]
ch1 : [2499, 2495, 2504, 2512, 2503, 2491, 2494, 2496, 2493, 2494]
ch2 : [1484, 1481, 1472, 1461, 1479, 1486, 1485, 1485, 1496, 1479]
ch3 : [2815, 2817, 2818, 2820, 2825, 2819, 2818, 2821, 2818, 2814]
ch0 : [2575, 2643, 2582, 2501, 2616, 2632, 2638, 2596, 2633, 2651]
ch1 : [2492, 2505, 2510, 2501, 2483, 2484, 2491, 2495, 2491, 2492]
ch2 : [1477, 1467, 1462, 1488, 1485, 1476, 1475, 1478, 1479, 1482]
ch3 : [2820, 2813, 2820, 2821, 2822, 2822, 2818, 2817, 2817, 2816]
ch0 : [2644, 2451, 2598, 2623, 2635, 2634, 2613, 2579, 2656, 2577]
ch1 : [2499, 2491, 2482, 2480, 2469, 2489, 2488, 2485, 2496, 2501]
ch2 : [1465, 1474, 1484, 1484, 1475, 1479, 1483, 1478, 1471, 1463]
ch3 : [2819, 2833, 2824, 2821, 2820, 2820, 2819, 2818, 2819, 2818]
ch0 : [2520, 2603, 2635, 2641, 2616, 2631, 2646, 2652, 2431, 2588]
ch1 : [2479, 2473, 2478, 2482, 2489, 2480, 2481, 2490, 2489, 2478]
ch2 : [1486, 1499, 1481, 1481, 1478, 1480, 1471, 1471, 1470, 1482]
ch3 : [2823, 2823, 2825, 2819, 2821, 2819, 2818, 2819, 2826, 2824]
ch0 : [2644, 2623, 2627, 2651, 2645, 2406, 2589, 2627, 2618, 2647]
ch1 : [2478, 2486, 2482, 2482, 2493, 2489, 2470, 2476, 2481, 2476]
ch2 : [1482, 1474, 1476, 1480, 1462, 1458, 1480, 1479, 1479, 1471]
ch3 : [2826, 2820, 2808, 2819, 2822, 2828, 2827, 2824, 2824, 2822]
ch0 : [2607, 2573, 2649, 2608, 2479, 2602, 2632, 2637, 2649, 2609]
ch1 : [2475, 2480, 2485, 2493, 2477, 2466, 2482, 2476, 2477, 2479]
ch2 : [1479, 1482, 1467, 1456, 1479, 1478, 1481, 1476, 1473, 1477]
ch3 : [2820, 2824, 2819, 2817, 2825, 2824, 2824, 2825, 2821, 2824]
ch0 : [2647, 2647, 2403, 2593, 2631, 2631, 2632, 2628, 2595, 2650]
ch1 : [2490, 2491, 2487, 2475, 2472, 2470, 2475, 2481, 2479, 2488]
ch2 : [1462, 1465, 1469, 1474, 1480, 1483, 1480, 1479, 1485, 1467]
ch3 : [2827, 2825, 2827, 2824, 2824, 2826, 2832, 2828, 2823, 2824]
ch0 : [2641, 2469, 2620, 2633, 2642, 2642, 2609, 2644, 2651, 2405]
ch1 : [2491, 2476, 2467, 2469, 2463, 2484, 2487, 2480, 2492, 2485]
ch2 : [1464, 1478, 1486, 1480, 1480, 1477, 1480, 1477, 1466, 1467]
ch3 : [2825, 2826, 2826, 2825, 2821, 2817, 2815, 2825, 2835, 2824]
ch0 : [2586, 2637, 2631, 2636, 2614, 2597, 2649, 2608, 2461, 2616]
ch1 : [2471, 2470, 2473, 2479, 2479, 2469, 2488, 2495, 2479, 2473]
ch2 : [1483, 1489, 1481, 1479, 1463, 1469, 1468, 1444, 1479, 1486]
ch3 : [2829, 2826, 2825, 2826, 2825, 2831, 2825, 2824, 2824, 2832]
ch0 : [2639, 2646, 2632, 2613, 2642, 2644, 2414, 2584, 2628, 2634]
ch1 : [2472, 2472, 2482, 2478, 2480, 2493, 2486, 2478, 2471, 2477]
ch2 : [1483, 1480, 1479, 1476, 1471, 1467, 1467, 1481, 1486, 1477]
ch3 : [2829, 2827, 2822, 2837, 2824, 2835, 2837, 2829, 2827, 2823]
ch0 : [2644, 2621, 2605, 2632, 2651, 2445, 2606, 2638, 2643, 2637]
ch1 : [2481, 2482, 2464, 2488, 2491, 2484, 2475, 2464, 2479, 2489]
ch2 : [1477, 1479, 1480, 1474, 1461, 1478, 1485, 1484, 1488, 1480]
ch3 : [2829, 2826, 2822, 2822, 2835, 2826, 2833, 2830, 2828, 2820]
ch0 : [2609, 2619, 2645, 2487, 2578, 2631, 2634, 2639, 2618, 2603]
ch1 : [2484, 2481, 2498, 2498, 2475, 2480, 2483, 2483, 2489, 2487]
ch2 : [1479, 1476, 1471, 1454, 1482, 1488, 1485, 1481, 1480, 1484]
ch3 : [2823, 2828, 2826, 2831, 2829, 2832, 2827, 2829, 2828, 2826]
ch0 : [2654, 2629, 2443, 2604, 2638, 2645, 2634, 2606, 2621, 2650]
ch1 : [2491, 2501, 2490, 2478, 2481, 2485, 2483, 2490, 2489, 2505]
ch2 : [1476, 1462, 1475, 1480, 1488, 1466, 1478, 1481, 1480, 1467]
ch3 : [2827, 2823, 2828, 2828, 2830, 2827, 2818, 2828, 2828, 2834]
ch0 : [2574, 2578, 2630, 2630, 2642, 2613, 2624, 2653, 2634, 2412]
ch1 : [2501, 2484, 2486, 2486, 2493, 2495, 2478, 2500, 2513, 2500]
ch2 : [1467, 1485, 1485, 1484, 1482, 1475, 1482, 1475, 1463, 1482]
ch3 : [2833, 2824, 2828, 2829, 2826, 2828, 2828, 2828, 2835, 2828]
ch0 : [2628, 2644, 2643, 2619, 2652, 2647, 2396, 2590, 2632, 2641]
ch1 : [2492, 2496, 2493, 2499, 2504, 2517, 2502, 2489, 2495, 2490]
ch2 : [1479, 1488, 1483, 1482, 1464, 1463, 1474, 1486, 1484, 1482]
ch3 : [2830, 2832, 2825, 2829, 2829, 2828, 2831, 2833, 2832, 2834]
ch0 : [2644, 2619, 2607, 2651, 2637, 2551, 2638, 2636, 2643, 2635]
ch1 : [2502, 2497, 2501, 2511, 2520, 2510, 2490, 2494, 2494, 2497]
ch2 : [1477, 1480, 1482, 1472, 1463, 1484, 1487, 1482, 1480, 1471]
ch3 : [2828, 2820, 2828, 2826, 2836, 2828, 2828, 2829, 2827, 2828]
ch0 : [2622, 2655, 2651, 2376, 2591, 2634, 2631, 2645, 2611, 2600]
ch1 : [2496, 2502, 2512, 2501, 2486, 2492, 2488, 2497, 2496, 2493]
ch2 : [1482, 1480, 1449, 1477, 1496, 1486, 1488, 1481, 1475, 1483]
ch3 : [2830, 2831, 2832, 2824, 2825, 2832, 2830, 2823, 2828, 2815]
ch0 : [2649, 2647, 2548, 2626, 2612, 2640, 2636, 2609, 2655, 2649]
ch1 : [2506, 2506, 2491, 2491, 2490, 2491, 2495, 2493, 2490, 2503]
ch2 : [1470, 1467, 1485, 1482, 1485, 1480, 1483, 1482, 1466, 1462]
ch3 : [2824, 2830, 2832, 2830, 2830, 2823, 2828, 2835, 2822, 2815]
ch0 : [2363, 2575, 2638, 2628, 2637, 2599, 2603, 2650, 2650, 2537]
ch1 : [2498, 2483, 2482, 2486, 2490, 2493, 2488, 2499, 2504, 2486]
ch2 : [1475, 1481, 1481, 1483, 1483, 1480, 1482, 1471, 1469, 1481]
ch3 : [2825, 2830, 2827, 2827, 2820, 2821, 2821, 2821, 2824, 2826]
ch0 : [2628, 2630, 2641, 2649, 2618, 2648, 2659, 2343, 2580, 2638]
ch1 : [2483, 2470, 2485, 2488, 2479, 2491, 2504, 2498, 2481, 2481]
ch2 : [1489, 1483, 1486, 1482, 1486, 1480, 1462, 1474, 1471, 1486]
ch3 : [2826, 2825, 2825, 2824, 2823, 2832, 2825, 2828, 2840, 2836]
ch0 : [2639, 2644, 2623, 2617, 2653, 2638, 2520, 2621, 2641, 2644]
ch1 : [2480, 2495, 2488, 2490, 2495, 2501, 2488, 2482, 2481, 2488]
ch2 : [1483, 1482, 1481, 1481, 1471, 1466, 1481, 1486, 1484, 1495]
ch3 : [2829, 2828, 2827, 2832, 2833, 2833, 2830, 2818, 2832, 2824]
ch0 : [2632, 2606, 2648, 2652, 2307, 2564, 2627, 2640, 2645, 2610]
ch1 : [2485, 2486, 2484, 2500, 2498, 2482, 2476, 2480, 2489, 2488]
ch2 : [1480, 1482, 1478, 1469, 1470, 1486, 1487, 1482, 1482, 1483]
ch3 : [2820, 2826, 2829, 2826, 2811, 2815, 2823, 2825, 2808, 2815]
ch0 : [2606, 2651, 2652, 2515, 2624, 2644, 2641, 2631, 2590, 2609]
ch1 : [2483, 2497, 2492, 2483, 2478, 2482, 2484, 2485, 2489, 2483]
ch2 : [1480, 1484, 1468, 1480, 1488, 1480, 1483, 1482, 1484, 1482]
ch3 : [2819, 2816, 2811, 2815, 2819, 2818, 2817, 2813, 2814, 2819]
ch0 : [2645, 2320, 2560, 2632, 2640, 2641, 2607, 2615, 2647, 2647]
ch1 : [2495, 2494, 2470, 2479, 2486, 2485, 2478, 2488, 2505, 2497]
ch2 : [1467, 1476, 1492, 1486, 1481, 1482, 1480, 1482, 1471, 1467]
ch3 : [2815, 2814, 2821, 2828, 2823, 2819, 2819, 2815, 2824, 2826]
ch0 : [2631, 2639, 2644, 2607, 2626, 2645, 2650, 2500, 2623, 2639]
ch1 : [2456, 2469, 2483, 2485, 2480, 2480, 2485, 2477, 2472, 2471]
ch2 : [1487, 1481, 1480, 1480, 1479, 1470, 1469, 1479, 1485, 1483]
ch3 : [2817, 2824, 2821, 2823, 2813, 2825, 2825, 2831, 2836, 2831]
ch0 : [2643, 2635, 2600, 2580, 2654, 2355, 2542, 2627, 2637, 2640]
ch1 : [2474, 2477, 2479, 2471, 2492, 2492, 2468, 2467, 2469, 2489]
ch2 : [1481, 1493, 1475, 1471, 1464, 1467, 1480, 1485, 1483, 1492]
ch3 : [2829, 2824, 2819, 2815, 2820, 2828, 2826, 2825, 2821, 2809]
ch0 : [2600, 2611, 2653, 2637, 2479, 2610, 2635, 2644, 2638, 2601]
ch1 : [2476, 2473, 2482, 2488, 2475, 2474, 2472, 2474, 2480, 2478]
ch2 : [1474, 1478, 1471, 1465, 1481, 1486, 1488, 1480, 1486, 1483]
ch3 : [2806, 2808, 2809, 2813, 2814, 2811, 2807, 2811, 2806, 2810]
ch0 : [2584, 2653, 2475, 2545, 2630, 2639, 2647, 2628, 2634, 2651]
ch1 : [2475, 2492, 2495, 2465, 2471, 2474, 2476, 2479, 2477, 2475]
ch2 : [1476, 1466, 1467, 1482, 1485, 1480, 1482, 1480, 1480, 1473]
ch3 : [2807, 2801, 2800, 2806, 2810, 2808, 2803, 2809, 2810, 2803]
ch0 : [2648, 2482, 2607, 2637, 2639, 2638, 2600, 2569, 2653, 2487]
ch1 : [2495, 2471, 2467, 2469, 2474, 2473, 2477, 2472, 2486, 2487]
ch2 : [1467, 1478, 1486, 1483, 1483, 1482, 1479, 1481, 1459, 1463]
ch3 : [2807, 2808, 2805, 2802, 2807, 2803, 2799, 2798, 2792, 2791]
ch0 : [2529, 2616, 2637, 2640, 2626, 2628, 2650, 2647, 2455, 2606]
ch1 : [2456, 2469, 2469, 2475, 2471, 2480, 2475, 2487, 2481, 2468]
ch2 : [1486, 1483, 1485, 1476, 1482, 1479, 1470, 1468, 1476, 1485]
ch3 : [2801, 2803, 2798, 2793, 2790, 2792, 2788, 2791, 2799, 2796]
ch0 : [2650, 2638, 2648, 2604, 2582, 2652, 2535, 2516, 2628, 2632]
ch1 : [2468, 2473, 2479, 2480, 2471, 2486, 2493, 2471, 2469, 2472]
ch2 : [1482, 1482, 1481, 1483, 1481, 1465, 1471, 1483, 1483, 1482]
ch3 : [2809, 2796, 2794, 2797, 2800, 2795, 2785, 2792, 2791, 2790]
ch0 : [2642, 2617, 2633, 2645, 2649, 2455, 2612, 2630, 2640, 2646]
ch1 : [2477, 2481, 2475, 2484, 2489, 2467, 2474, 2472, 2470, 2479]
ch2 : [1475, 1480, 1485, 1473, 1463, 1476, 1487, 1488, 1482, 1484]
ch3 : [2783, 2778, 2777, 2774, 2787, 2785, 2777, 2788, 2777, 2776]
ch0 : [2603, 2582, 2646, 2575, 2507, 2614, 2634, 2641, 2614, 2613]
ch1 : [2476, 2479, 2489, 2482, 2474, 2474, 2472, 2479, 2485, 2475]
ch2 : [1481, 1480, 1462, 1468, 1488, 1476, 1487, 1485, 1480, 1480]
ch3 : [2777, 2771, 2772, 2775, 2779, 2785, 2785, 2779, 2773, 2766]
ch0 : [2647, 2619, 2443, 2600, 2627, 2630, 2641, 2619, 2572, 2647]
ch1 : [2488, 2491, 2489, 2479, 2473, 2476, 2483, 2481, 2483, 2495]
ch2 : [1476, 1467, 1477, 1475, 1483, 1484, 1482, 1487, 1477, 1470]
ch3 : [2765, 2776, 2785, 2777, 2768, 2768, 2767, 2767, 2769, 2765]
ch0 : [2607, 2635, 2621, 2637, 2615, 2576, 2650, 2582, 2487, 2620]
ch1 : [2475, 2480, 2481, 2487, 2486, 2487, 2500, 2505, 2482, 2471]
ch2 : [1488, 1486, 1486, 1486, 1481, 1484, 1471, 1466, 1489, 1488]
ch3 : [2767, 2763, 2764, 2755, 2756, 2747, 2751, 2749, 2751, 2749]
ch0 : [2640, 2637, 2626, 2615, 2645, 2642, 2411, 2593, 2633, 2613]
ch1 : [2481, 2484, 2494, 2484, 2486, 2502, 2499, 2484, 2485, 2488]
ch2 : [1487, 1486, 1478, 1487, 1478, 1466, 1475, 1485, 1488, 1483]
ch3 : [2751, 2757, 2753, 2743, 2736, 2741, 2745, 2751, 2751, 2747]
ch0 : [2639, 2587, 2584, 2648, 2649, 2496, 2616, 2629, 2644, 2619]
ch1 : [2497, 2482, 2491, 2504, 2507, 2494, 2481, 2489, 2495, 2501]
ch2 : [1487, 1495, 1483, 1471, 1468, 1486, 1488, 1481, 1483, 1485]
ch3 : [2749, 2736, 2747, 2746, 2742, 2749, 2737, 2750, 2742, 2735]
ch0 : [2610, 2636, 2639, 2454, 2586, 2628, 2624, 2638, 2613, 2580]
ch1 : [2498, 2498, 2510, 2507, 2494, 2493, 2499, 2500, 2504, 2504]
ch2 : [1485, 1487, 1470, 1479, 1492, 1489, 1487, 1490, 1485, 1485]
ch3 : [2732, 2724, 2740, 2740, 2740, 2733, 2728, 2729, 2731, 2727]
ch0 : [2651, 2648, 2484, 2600, 2642, 2640, 2632, 2621, 2648, 2644]
ch1 : [2508, 2517, 2496, 2499, 2497, 2501, 2507, 2502, 2502, 2517]
ch2 : [1475, 1470, 1491, 1490, 1491, 1482, 1484, 1484, 1487, 1474]
ch3 : [2732, 2729, 2726, 2713, 2733, 2732, 2733, 2733, 2731, 2745]
ch0 : [2401, 2580, 2634, 2634, 2638, 2609, 2596, 2650, 2640, 2477]
ch1 : [2515, 2502, 2501, 2502, 2504, 2510, 2503, 2517, 2513, 2506]
ch2 : [1478, 1495, 1491, 1492, 1488, 1487, 1494, 1476, 1467, 1487]
ch3 : [2737, 2736, 2734, 2734, 2737, 2733, 2737, 2728, 2725, 2730]
ch0 : [2608, 2633, 2645, 2631, 2599, 2642, 2657, 2402, 2585, 2626]
ch1 : [2502, 2503, 2503, 2504, 2507, 2508, 2521, 2521, 2503, 2499]
ch2 : [1488, 1495, 1487, 1485, 1486, 1486, 1473, 1475, 1490, 1487]
ch3 : [2735, 2739, 2737, 2726, 2718, 2724, 2719, 2728, 2723, 2736]
ch0 : [2635, 2637, 2603, 2602, 2645, 2652, 2454, 2611, 2628, 2642]
ch1 : [2504, 2508, 2509, 2508, 2515, 2532, 2511, 2498, 2495, 2498]
ch2 : [1486, 1483, 1487, 1489, 1480, 1472, 1487, 1494, 1486, 1486]
ch3 : [2727, 2722, 2724, 2725, 2726, 2722, 2725, 2722, 2720, 2717]
ch0 : [2640, 2600, 2634, 2648, 2432, 2572, 2626, 2630, 2640, 2599]
ch1 : [2508, 2505, 2499, 2516, 2520, 2497, 2500, 2499, 2498, 2496]
ch2 : [1487, 1484, 1488, 1468, 1477, 1492, 1491, 1487, 1490, 1483]
ch3 : [2722, 2716, 2716, 2716, 2724, 2722, 2728, 2724, 2702, 2712]
ch0 : [2596, 2648, 2627, 2440, 2603, 2627, 2644, 2636, 2596, 2620]
ch1 : [2500, 2507, 2516, 2495, 2480, 2490, 2497, 2501, 2494, 2495]
ch2 : [1488, 1480, 1475, 1469, 1495, 1487, 1486, 1488, 1486, 1490]
ch3 : [2713, 2712, 2716, 2722, 2719, 2718, 2712, 2709, 2711, 2720]
ch0 : [2422, 2598, 2632, 2640, 2641, 2597, 2596, 2649, 2531, 2571]
ch1 : [2492, 2484, 2484, 2486, 2504, 2498, 2494, 2500, 2501, 2481]
ch2 : [1495, 1497, 1500, 1494, 1493, 1488, 1492, 1477, 1474, 1499]
ch3 : [2718, 2732, 2722, 2721, 2718, 2723, 2718, 2719, 2724, 2711]
ch0 : [2628, 2628, 2637, 2620, 2615, 2639, 2621, 2399, 2599, 2631]
ch1 : [2482, 2485, 2486, 2487, 2487, 2492, 2503, 2487, 2479, 2477]
ch2 : [1497, 1491, 1488, 1488, 1502, 1484, 1473, 1487, 1496, 1496]
ch3 : [2722, 2718, 2722, 2714, 2715, 2718, 2716, 2718, 2721, 2716]
ch0 : [2641, 2642, 2608, 2609, 2648, 2585, 2563, 2622, 2630, 2625]
ch1 : [2481, 2487, 2488, 2483, 2497, 2499, 2480, 2471, 2481, 2483]
ch2 : [1492, 1496, 1489, 1493, 1480, 1477, 1495, 1495, 1497, 1491]
ch3 : [2719, 2714, 2712, 2716, 2713, 2723, 2715, 2721, 2715, 2715]
ch0 : [2627, 2616, 2649, 2641, 2406, 2592, 2636, 2638, 2622, 2614]
ch1 : [2491, 2488, 2490, 2495, 2489, 2481, 2479, 2475, 2491, 2484]
ch2 : [1495, 1492, 1485, 1473, 1482, 1495, 1494, 1492, 1492, 1496]
ch3 : [2717, 2720, 2718, 2714, 2718, 2723, 2721, 2727, 2718, 2718]
ch0 : [2603, 2648, 2607, 2559, 2629, 2625, 2628, 2628, 2628, 2646]
ch1 : [2478, 2494, 2500, 2484, 2480, 2478, 2484, 2485, 2484, 2485]
ch2 : [1491, 1473, 1481, 1499, 1495, 1495, 1491, 1498, 1491, 1491]
ch3 : [2720, 2722, 2724, 2720, 2724, 2717, 2722, 2719, 2721, 2721]
ch0 : [2648, 2376, 2577, 2635, 2629, 2638, 2612, 2594, 2645, 2633]
ch1 : [2499, 2487, 2472, 2472, 2476, 2481, 2483, 2474, 2487, 2491]
ch2 : [1475, 1489, 1497, 1495, 1491, 1495, 1490, 1489, 1486, 1478]
ch3 : [2719, 2723, 2723, 2725, 2725, 2720, 2724, 2726, 2725, 2728]
ch0 : [2535, 2625, 2630, 2631, 2628, 2619, 2649, 2644, 2369, 2576]
ch1 : [2476, 2471, 2470, 2474, 2489, 2472, 2473, 2491, 2477, 2464]
ch2 : [1496, 1498, 1492, 1491, 1490, 1489, 1487, 1471, 1482, 1490]
ch3 : [2727, 2728, 2732, 2726, 2728, 2728, 2727, 2726, 2728, 2732]
ch0 : [2631, 2633, 2639, 2599, 2599, 2650, 2628, 2538, 2615, 2628]
ch1 : [2461, 2464, 2471, 2470, 2471, 2482, 2482, 2468, 2463, 2467]
ch2 : [1499, 1491, 1490, 1500, 1488, 1480, 1470, 1489, 1492, 1491]
ch3 : [2736, 2732, 2728, 2727, 2728, 2737, 2737, 2733, 2735, 2731]
ch0 : [2635, 2632, 2593, 2647, 2638, 2350, 2582, 2632, 2631, 2641]
ch1 : [2462, 2463, 2475, 2471, 2482, 2476, 2461, 2455, 2462, 2466]
ch2 : [1491, 1486, 1487, 1486, 1468, 1481, 1491, 1474, 1489, 1486]
ch3 : [2734, 2733, 2733, 2736, 2736, 2739, 2744, 2746, 2744, 2753]
ch0 : [2606, 2602, 2646, 2615, 2546, 2632, 2627, 2640, 2631, 2602]
ch1 : [2465, 2463, 2477, 2481, 2469, 2460, 2462, 2467, 2469, 2469]
ch2 : [1484, 1481, 1477, 1471, 1485, 1489, 1494, 1487, 1494, 1482]
ch3 : [2731, 2742, 2734, 2747, 2752, 2746, 2746, 2745, 2746, 2748]
ch0 : [2647, 2658, 2354, 2569, 2631, 2630, 2640, 2605, 2603, 2650]
ch1 : [2471, 2489, 2480, 2461, 2469, 2466, 2476, 2478, 2478, 2489]
ch2 : [1488, 1470, 1481, 1492, 1497, 1490, 1483, 1483, 1486, 1469]
ch3 : [2750, 2747, 2750, 2752, 2751, 2747, 2750, 2746, 2752, 2752]
ch0 : [2557, 2634, 2627, 2643, 2623, 2605, 2662, 2631, 2509, 2625]
ch1 : [2476, 2478, 2484, 2492, 2489, 2488, 2502, 2506, 2502, 2481]
ch2 : [1491, 1495, 1493, 1485, 1484, 1485, 1476, 1469, 1483, 1489]
ch3 : [2764, 2765, 2751, 2759, 2760, 2758, 2762, 2772, 2764, 2760]
ch0 : [2635, 2635, 2639, 2583, 2614, 2642, 2336, 2558, 2631, 2623]
ch1 : [2485, 2492, 2492, 2495, 2493, 2512, 2504, 2483, 2484, 2490]
ch2 : [1492, 1486, 1489, 1480, 1490, 1469, 1476, 1490, 1489, 1487]
ch3 : [2763, 2763, 2755, 2765, 2759, 2766, 2768, 2765, 2770, 2772]
ch0 : [2633, 2620, 2603, 2643, 2625, 2509, 2614, 2620, 2642, 2639]
ch1 : [2494, 2493, 2493, 2498, 2504, 2486, 2485, 2485, 2486, 2489]
ch2 : [1484, 1484, 1491, 1477, 1473, 1485, 1494, 1483, 1486, 1494]
ch3 : [2777, 2762, 2767, 2768, 2761, 2763, 2772, 2770, 2776, 2772]
ch0 : [2589, 2584, 2645, 2343, 2551, 2622, 2635, 2641, 2605, 2611]
ch1 : [2485, 2492, 2499, 2500, 2481, 2480, 2481, 2492, 2491, 2486]
ch2 : [1489, 1489, 1472, 1475, 1489, 1490, 1491, 1491, 1485, 1486]
ch3 : [2771, 2773, 2774, 2774, 2771, 2778, 2773, 2770, 2770, 2766]
ch0 : [2648, 2644, 2493, 2615, 2626, 2643, 2633, 2572, 2580, 2645]
ch1 : [2495, 2498, 2490, 2480, 2483, 2478, 2498, 2479, 2484, 2491]
ch2 : [1477, 1469, 1484, 1488, 1490, 1487, 1491, 1486, 1484, 1470]
ch3 : [2773, 2776, 2780, 2776, 2780, 2773, 2774, 2778, 2778, 2772]
ch0 : [2342, 2530, 2619, 2630, 2638, 2597, 2612, 2642, 2640, 2479]
ch1 : [2491, 2480, 2470, 2473, 2475, 2479, 2492, 2486, 2492, 2477]
ch2 : [1471, 1492, 1493, 1483, 1488, 1480, 1483, 1481, 1465, 1483]
ch3 : [2774, 2775, 2778, 2778, 2775, 2774, 2775, 2778, 2780, 2781]
ch0 : [2609, 2619, 2640, 2631, 2570, 2577, 2647, 2430, 2538, 2609]
ch1 : [2471, 2467, 2471, 2474, 2481, 2475, 2488, 2491, 2473, 2471]
ch2 : [1489, 1488, 1493, 1484, 1486, 1488, 1471, 1467, 1489, 1492]
ch3 : [2780, 2780, 2780, 2783, 2776, 2779, 2783, 2779, 2783, 2789]
ch0 : [2631, 2634, 2602, 2623, 2646, 2647, 2472, 2605, 2631, 2636]
ch1 : [2473, 2479, 2478, 2480, 2483, 2493, 2487, 2476, 2471, 2479]
ch2 : [1487, 1482, 1490, 1486, 1481, 1471, 1481, 1494, 1488, 1489]
ch3 : [2784, 2780, 2784, 2785, 2782, 2787, 2793, 2783, 2782, 2788]
ch0 : [2629, 2600, 2559, 2646, 2478, 2521, 2630, 2635, 2635, 2619]
ch1 : [2481, 2484, 2480, 2495, 2503, 2478, 2474, 2482, 2488, 2487]
ch2 : [1486, 1488, 1483, 1471, 1471, 1490, 1488, 1491, 1487, 1484]
ch3 : [2783, 2772, 2788, 2788, 2786, 2790, 2790, 2793, 2787, 2786]
ch0 : [2628, 2645, 2645, 2465, 2610, 2632, 2636, 2637, 2608, 2562]
ch1 : [2484, 2492, 2502, 2491, 2485, 2483, 2488, 2488, 2489, 2492]
ch2 : [1471, 1481, 1471, 1486, 1494, 1490, 1490, 1487, 1490, 1487]
ch3 : [2789, 2781, 2792, 2795, 2790, 2786, 2796, 2790, 2792, 2791]
ch0 : [2651, 2454, 2516, 2601, 2628, 2641, 2602, 2617, 2646, 2641]
ch1 : [2495, 2503, 2484, 2487, 2489, 2491, 2506, 2494, 2494, 2509]
ch2 : [1472, 1473, 1494, 1492, 1491, 1490, 1483, 1486, 1485, 1473]
ch3 : [2794, 2791, 2797, 2796, 2797, 2792, 2787, 2792, 2795, 2796]
ch0 : [2446, 2602, 2629, 2629, 2636, 2594, 2566, 2638, 2649, 2516]
ch1 : [2495, 2488, 2485, 2489, 2491, 2492, 2487, 2506, 2506, 2487]
ch2 : [1484, 1490, 1489, 1490, 1488, 1486, 1486, 1472, 1472, 1504]
ch3 : [2798, 2796, 2789, 2796, 2787, 2791, 2794, 2796, 2793, 2800]
ch0 : [2622, 2624, 2638, 2621, 2615, 2641, 2644, 2436, 2600, 2624]
ch1 : [2480, 2485, 2491, 2492, 2489, 2495, 2505, 2496, 2486, 2499]
ch2 : [1491, 1489, 1473, 1485, 1468, 1479, 1465, 1475, 1484, 1489]
ch3 : [2799, 2800, 2796, 2793, 2787, 2793, 2797, 2798, 2800, 2797]
ch0 : [2629, 2629, 2599, 2570, 2644, 2636, 2491, 2611, 2625, 2650]
ch1 : [2484, 2487, 2491, 2487, 2497, 2503, 2483, 2482, 2479, 2485]
ch2 : [1483, 1487, 1486, 1487, 1466, 1468, 1493, 1491, 1491, 1491]
ch3 : [2798, 2797, 2800, 2795, 2795, 2794, 2799, 2801, 2801, 2797]
ch0 : [2634, 2619, 2644, 2635, 2431, 2582, 2621, 2616, 2630, 2601]
ch1 : [2486, 2487, 2485, 2494, 2491, 2478, 2479, 2485, 2488, 2486]
ch2 : [1486, 1488, 1485, 1476, 1497, 1489, 1491, 1489, 1490, 1487]
ch3 : [2797, 2795, 2796, 2801, 2801, 2801, 2800, 2799, 2796, 2794]
ch0 : [2568, 2645, 2629, 2482, 2607, 2623, 2642, 2616, 2606, 2626]
ch1 : [2486, 2491, 2501, 2484, 2478, 2475, 2482, 2486, 2489, 2484]
ch2 : [1486, 1477, 1470, 1493, 1494, 1490, 1489, 1486, 1488, 1488]
ch3 : [2802, 2790, 2800, 2801, 2801, 2795, 2797, 2799, 2797, 2802]
ch0 : [2636, 2429, 2592, 2627, 2623, 2631, 2603, 2564, 2643, 2639]
ch1 : [2496, 2492, 2484, 2479, 2480, 2496, 2487, 2492, 2495, 2504]
ch2 : [1477, 1477, 1488, 1486, 1491, 1489, 1493, 1490, 1476, 1465]
ch3 : [2803, 2806, 2802, 2803, 2795, 2797, 2795, 2802, 2799, 2800]
ch0 : [2475, 2610, 2631, 2639, 2617, 2603, 2639, 2640, 2409, 2584]
ch1 : [2488, 2476, 2478, 2487, 2489, 2486, 2497, 2501, 2495, 2489]
ch2 : [1491, 1505, 1491, 1491, 1487, 1486, 1489, 1473, 1479, 1491]
ch3 : [2803, 2805, 2802, 2803, 2798, 2800, 2790, 2813, 2804, 2804]
ch0 : [2626, 2610, 2631, 2596, 2584, 2641, 2645, 2466, 2601, 2633]
ch1 : [2487, 2485, 2493, 2492, 2495, 2501, 2509, 2489, 2485, 2494]
ch2 : [1492, 1490, 1503, 1486, 1478, 1478, 1467, 1488, 1493, 1493]
ch3 : [2807, 2804, 2802, 2804, 2808, 2803, 2804, 2806, 2808, 2808]
ch0 : [2639, 2631, 2591, 2640, 2644, 2412, 2577, 2629, 2626, 2636]
ch1 : [2487, 2493, 2495, 2495, 2503, 2500, 2488, 2487, 2482, 2491]
ch2 : [1487, 1486, 1489, 1492, 1473, 1478, 1490, 1475, 1490, 1490]
ch3 : [2804, 2802, 2805, 2802, 2805, 2812, 2809, 2807, 2815, 2799]
ch0 : [2613, 2585, 2648, 2603, 2472, 2603, 2627, 2638, 2636, 2584]
ch1 : [2493, 2492, 2499, 2507, 2490, 2481, 2481, 2486, 2493, 2482]
ch2 : [1488, 1487, 1478, 1468, 1489, 1491, 1488, 1492, 1485, 1487]
ch3 : [2807, 2810, 2804, 2805, 2796, 2803, 2803, 2807, 2804, 2803]
ch0 : [2641, 2647, 2399, 2588, 2634, 2623, 2635, 2615, 2596, 2655]
ch1 : [2488, 2502, 2486, 2485, 2485, 2483, 2486, 2489, 2485, 2498]
ch2 : [1501, 1473, 1477, 1506, 1492, 1492, 1487, 1486, 1486, 1481]
ch3 : [2804, 2822, 2811, 2808, 2811, 2807, 2803, 2806, 2807, 2806]
ch0 : [2638, 2456, 2603, 2631, 2641, 2632, 2614, 2633, 2648, 2437]
ch1 : [2514, 2487, 2477, 2483, 2483, 2486, 2486, 2485, 2496, 2498]
ch2 : [1467, 1486, 1491, 1491, 1489, 1485, 1476, 1486, 1469, 1477]
ch3 : [2809, 2810, 2812, 2813, 2811, 2804, 2806, 2808, 2812, 2811]
ch0 : [2567, 2634, 2621, 2649, 2618, 2602, 2646, 2653, 2440, 2603]
ch1 : [2483, 2482, 2475, 2482, 2488, 2481, 2495, 2499, 2484, 2474]
ch2 : [1492, 1491, 1488, 1487, 1486, 1487, 1479, 1468, 1482, 1492]
ch3 : [2812, 2811, 2808, 2809, 2812, 2809, 2810, 2807, 2812, 2813]
ch0 : [2634, 2641, 2636, 2599, 2627, 2638, 2494, 2571, 2628, 2628]
ch1 : [2478, 2480, 2485, 2484, 2481, 2492, 2497, 2490, 2475, 2489]
ch2 : [1488, 1488, 1487, 1486, 1487, 1471, 1475, 1491, 1491, 1491]
ch3 : [2815, 2813, 2807, 2807, 2809, 2809, 2811, 2814, 2813, 2808]
ch0 : [2639, 2606, 2618, 2656, 2585, 2437, 2598, 2628, 2640, 2639]
ch1 : [2484, 2483, 2480, 2487, 2500, 2483, 2475, 2480, 2478, 2485]
ch2 : [1488, 1487, 1479, 1484, 1470, 1486, 1491, 1492, 1487, 1500]
ch3 : [2809, 2807, 2808, 2808, 2808, 2813, 2813, 2807, 2813, 2808]
ch0 : [2598, 2597, 2649, 2547, 2567, 2630, 2628, 2634, 2615, 2620]
ch1 : [2484, 2482, 2494, 2489, 2479, 2471, 2481, 2480, 2482, 2485]
ch2 : [1486, 1502, 1482, 1476, 1491, 1492, 1490, 1479, 1486, 1487]
ch3 : [2807, 2807, 2810, 2815, 2815, 2817, 2812, 2813, 2813, 2813]
ch0 : [2645, 2644, 2417, 2586, 2634, 2638, 2652, 2596, 2607, 2632]
ch1 : [2489, 2495, 2483, 2475, 2480, 2481, 2489, 2488, 2481, 2499]
ch2 : [1479, 1470, 1485, 1493, 1492, 1487, 1486, 1485, 1483, 1472]
ch3 : [2813, 2803, 2814, 2817, 2815, 2816, 2810, 2810, 2812, 2814]
ch0 : [2607, 2562, 2634, 2625, 2635, 2629, 2620, 2649, 2641, 2397]
ch1 : [2500, 2484, 2480, 2482, 2482, 2489, 2489, 2490, 2501, 2489]
ch2 : [1472, 1490, 1496, 1489, 1491, 1487, 1486, 1481, 1463, 1482]
ch3 : [2819, 2806, 2815, 2814, 2814, 2812, 2814, 2813, 2808, 2811]
ch0 : [2620, 2634, 2623, 2623, 2644, 2639, 2371, 2583, 2624, 2637]
ch1 : [2481, 2490, 2490, 2492, 2495, 2503, 2492, 2483, 2475, 2485]
ch2 : [1489, 1490, 1489, 1487, 1484, 1473, 1486, 1492, 1492, 1487]
ch3 : [2818, 2815, 2815, 2814, 2817, 2814, 2815, 2815, 2824, 2818]
ch0 : [2642, 2598, 2599, 2645, 2622, 2550, 2613, 2636, 2623, 2617]
ch1 : [2489, 2488, 2481, 2498, 2499, 2487, 2479, 2481, 2483, 2487]
ch2 : [1482, 1490, 1490, 1475, 1474, 1491, 1492, 1485, 1493, 1487]
ch3 : [2813, 2817, 2815, 2817, 2819, 2820, 2817, 2818, 2817, 2816]
ch0 : [2623, 2647, 2645, 2363, 2573, 2618, 2619, 2637, 2605, 2598]
ch1 : [2481, 2487, 2502, 2487, 2478, 2478, 2479, 2487, 2487, 2482]
ch2 : [1489, 1485, 1471, 1482, 1496, 1496, 1484, 1485, 1484, 1489]
ch3 : [2820, 2817, 2813, 2818, 2826, 2820, 2821, 2819, 2815, 2816]
ch0 : [2645, 2640, 2531, 2605, 2628, 2636, 2631, 2587, 2644, 2639]
ch1 : [2496, 2501, 2488, 2482, 2485, 2488, 2492, 2488, 2490, 2513]
ch2 : [1475, 1476, 1496, 1494, 1490, 1489, 1488, 1492, 1487, 1470]
ch3 : [2820, 2821, 2829, 2813, 2818, 2815, 2817, 2820, 2819, 2815]
ch0 : [2353, 2578, 2625, 2626, 2635, 2581, 2602, 2648, 2641, 2519]
ch1 : [2494, 2482, 2479, 2481, 2488, 2484, 2484, 2497, 2504, 2489]
ch2 : [1482, 1494, 1490, 1483, 1486, 1486, 1491, 1476, 1474, 1489]
ch3 : [2822, 2820, 2821, 2823, 2822, 2824, 2815, 2817, 2824, 2819]
ch0 : [2631, 2621, 2641, 2629, 2602, 2644, 2651, 2316, 2569, 2628]
ch1 : [2479, 2479, 2485, 2484, 2488, 2488, 2500, 2496, 2479, 2479]
ch2 : [1495, 1491, 1492, 1489, 1483, 1487, 1469, 1476, 1494, 1493]
ch3 : [2815, 2815, 2813, 2811, 2818, 2818, 2815, 2816, 2821, 2821]
ch0 : [2639, 2641, 2599, 2605, 2648, 2640, 2512, 2622, 2624, 2638]
ch1 : [2465, 2496, 2489, 2485, 2492, 2489, 2488, 2482, 2485, 2488]
ch2 : [1489, 1491, 1489, 1488, 1479, 1475, 1477, 1493, 1492, 1492]
ch3 : [2821, 2816, 2815, 2816, 2811, 2821, 2821, 2820, 2819, 2820]
ch0 : [2629, 2600, 2643, 2649, 2326, 2558, 2621, 2640, 2639, 2602]
ch1 : [2496, 2486, 2484, 2504, 2499, 2489, 2479, 2482, 2492, 2493]
ch2 : [1495, 1491, 1490, 1471, 1481, 1495, 1496, 1488, 1489, 1489]
ch3 : [2820, 2820, 2819, 2826, 2817, 2820, 2822, 2818, 2814, 2815]
ch0 : [2607, 2644, 2644, 2497, 2610, 2621, 2637, 2638, 2602, 2590]
ch1 : [2487, 2498, 2505, 2505, 2475, 2486, 2489, 2494, 2491, 2491]
ch2 : [1476, 1480, 1475, 1491, 1496, 1491, 1491, 1492, 1489, 1486]
ch3 : [2817, 2815, 2819, 2826, 2821, 2820, 2819, 2820, 2819, 2824]
ch0 : [2650, 2309, 2560, 2626, 2630, 2633, 2618, 2614, 2647, 2643]
ch1 : [2505, 2504, 2488, 2483, 2487, 2493, 2491, 2486, 2497, 2508]
ch2 : [1472, 1479, 1494, 1494, 1495, 1490, 1489, 1488, 1475, 1478]
ch3 : [2820, 2823, 2824, 2823, 2823, 2820, 2817, 2818, 2816, 2822]
ch0 : [2492, 2627, 2638, 2639, 2638, 2588, 2571, 2634, 2334, 2542]
ch1 : [2505, 2484, 2483, 2495, 2493, 2494, 2495, 2513, 2506, 2486]
ch2 : [1485, 1500, 1495, 1494, 1487, 1497, 1491, 1473, 1480, 1494]
ch3 : [2827, 2828, 2822, 2821, 2819, 2820, 2823, 2818, 2818, 2825]
ch0 : [2626, 2640, 2650, 2605, 2619, 2648, 2623, 2502, 2611, 2634]
ch1 : [2481, 2492, 2496, 2497, 2495, 2502, 2508, 2495, 2486, 2491]
ch2 : [1497, 1493, 1487, 1491, 1490, 1487, 1479, 1492, 1494, 1494]
ch3 : [2824, 2825, 2817, 2821, 2820, 2824, 2807, 2825, 2821, 2815]
ch0 : [2635, 2624, 2585, 2567, 2643, 2369, 2536, 2628, 2634, 2641]
ch1 : [2490, 2495, 2498, 2491, 2506, 2505, 2487, 2486, 2491, 2492]
ch2 : [1478, 1492, 1492, 1491, 1476, 1477, 1500, 1482, 1495, 1496]
ch3 : [2825, 2819, 2822, 2821, 2818, 2818, 2819, 2822, 2821, 2819]
ch0 : [2600, 2615, 2646, 2641, 2463, 2615, 2630, 2636, 2638, 2603]
ch1 : [2487, 2488, 2499, 2497, 2495, 2483, 2488, 2488, 2490, 2492]
ch2 : [1494, 1492, 1486, 1467, 1489, 1498, 1498, 1499, 1495, 1495]
ch3 : [2814, 2820, 2818, 2822, 2824, 2815, 2819, 2820, 2820, 2819]
ch0 : [2564, 2646, 2442, 2527, 2609, 2629, 2639, 2579, 2606, 2643]
ch1 : [2492, 2502, 2508, 2486, 2482, 2486, 2493, 2498, 2490, 2492]
ch2 : [1493, 1481, 1476, 1513, 1498, 1497, 1500, 1491, 1503, 1484]
ch3 : [2830, 2815, 2816, 2822, 2820, 2819, 2814, 2813, 2814, 2817]
ch0 : [2648, 2467, 2591, 2619, 2632, 2630, 2590, 2565, 2641, 2477]
ch1 : [2505, 2494, 2485, 2488, 2489, 2496, 2493, 2489, 2503, 2510]
ch2 : [1478, 1493, 1494, 1496, 1493, 1494, 1492, 1493, 1478, 1471]
ch3 : [2827, 2820, 2816, 2817, 2819, 2814, 2817, 2818, 2816, 2814]
ch0 : [2510, 2613, 2629, 2636, 2604, 2628, 2642, 2644, 2454, 2613]
ch1 : [2487, 2483, 2490, 2478, 2492, 2493, 2492, 2501, 2495, 2487]
ch2 : [1501, 1498, 1495, 1494, 1492, 1492, 1489, 1480, 1487, 1496]
ch3 : [2825, 2815, 2820, 2818, 2821, 2815, 2816, 2821, 2818, 2825]
ch0 : [2615, 2634, 2637, 2625, 2584, 2640, 2513, 2525, 2626, 2630]
ch1 : [2486, 2481, 2494, 2492, 2497, 2507, 2507, 2488, 2491, 2492]
ch2 : [1499, 1480, 1491, 1485, 1486, 1479, 1478, 1496, 1497, 1491]
ch3 : [2815, 2823, 2821, 2823, 2824, 2817, 2811, 2819, 2825, 2829]
ch0 : [2633, 2608, 2621, 2646, 2644, 2434, 2606, 2630, 2634, 2636]
ch1 : [2492, 2493, 2498, 2491, 2507, 2494, 2488, 2485, 2489, 2494]
ch2 : [1504, 1490, 1494, 1488, 1479, 1488, 1498, 1490, 1494, 1493]
ch3 : [2822, 2815, 2812, 2815, 2815, 2822, 2815, 2821, 2820, 2813]
ch0 : [2617, 2570, 2631, 2560, 2513, 2612, 2637, 2635, 2611, 2621]
ch1 : [2491, 2489, 2504, 2510, 2488, 2485, 2483, 2488, 2490, 2486]
ch2 : [1505, 1490, 1476, 1473, 1495, 1498, 1495, 1493, 1492, 1488]
ch3 : [2804, 2815, 2814, 2812, 2812, 2814, 2814, 2811, 2810, 2815]
ch0 : [2596, 2500, 2602, 2630, 2638, 2627, 2610, 2644, 2645, 2417]
ch1 : [2501, 2483, 2480, 2471, 2483, 2489, 2501, 2486, 2497, 2490]
ch2 : [1469, 1493, 1491, 1501, 1495, 1491, 1489, 1485, 1478, 1489]
ch3 : [2799, 2810, 2820, 2821, 2813, 2807, 2808, 2802, 2802, 2811]
ch0 : [2607, 2636, 2617, 2631, 2593, 2583, 2640, 2641, 2489, 2606]
ch1 : [2461, 2475, 2481, 2483, 2484, 2498, 2492, 2500, 2480, 2472]
ch2 : [1500, 1500, 1494, 1492, 1489, 1490, 1482, 1472, 1493, 1489]
ch3 : [2807, 2808, 2804, 2795, 2796, 2801, 2799, 2793, 2793, 2808]
ch0 : [2630, 2642, 2633, 2612, 2638, 2645, 2422, 2596, 2632, 2628]
ch1 : [2479, 2484, 2486, 2480, 2477, 2494, 2490, 2479, 2479, 2474]
ch2 : [1492, 1501, 1496, 1496, 1488, 1477, 1488, 1499, 1503, 1497]
ch3 : [2810, 2798, 2794, 2785, 2799, 2800, 2812, 2808, 2804, 2808]
ch0 : [2636, 2620, 2579, 2650, 2651, 2482, 2616, 2636, 2642, 2635]
ch1 : [2486, 2486, 2484, 2494, 2502, 2484, 2475, 2474, 2480, 2484]
ch2 : [1491, 1493, 1490, 1479, 1475, 1493, 1493, 1494, 1487, 1484]
ch3 : [2814, 2814, 2804, 2808, 2806, 2803, 2805, 2805, 2809, 2807]
ch0 : [2604, 2643, 2645, 2387, 2599, 2629, 2626, 2641, 2610, 2583]
ch1 : [2486, 2483, 2499, 2495, 2482, 2484, 2483, 2489, 2492, 2489]
ch2 : [1489, 1477, 1476, 1485, 1493, 1495, 1491, 1491, 1493, 1489]
ch3 : [2808, 2804, 2797, 2806, 2790, 2801, 2804, 2797, 2794, 2789]
ch0 : [2652, 2631, 2487, 2604, 2635, 2641, 2630, 2603, 2649, 2644]
ch1 : [2497, 2506, 2488, 2477, 2478, 2493, 2496, 2490, 2486, 2503]
ch2 : [1480, 1476, 1491, 1491, 1487, 1487, 1487, 1493, 1489, 1474]
ch3 : [2779, 2775, 2794, 2798, 2794, 2785, 2782, 2779, 2771, 2776]
ch0 : [2417, 2599, 2623, 2620, 2640, 2628, 2598, 2652, 2651, 2458]
ch1 : [2500, 2485, 2481, 2487, 2486, 2499, 2486, 2493, 2508, 2486]
ch2 : [1479, 1491, 1480, 1493, 1490, 1488, 1490, 1476, 1467, 1489]
ch3 : [2793, 2791, 2797, 2787, 2782, 2780, 2783, 2787, 2781, 2787]
ch0 : [2605, 2639, 2640, 2623, 2596, 2642, 2648, 2417, 2575, 2633]
ch1 : [2474, 2479, 2480, 2476, 2486, 2498, 2497, 2490, 2478, 2486]
ch2 : [1494, 1487, 1483, 1489, 1487, 1487, 1485, 1474, 1491, 1493]
ch3 : [2789, 2785, 2782, 2778, 2777, 2777, 2776, 2768, 2779, 2773]
ch0 : [2628, 2633, 2610, 2592, 2650, 2610, 2436, 2603, 2631, 2640]
ch1 : [2473, 2467, 2484, 2481, 2491, 2501, 2484, 2471, 2471, 2477]
ch2 : [1490, 1487, 1492, 1490, 1480, 1471, 1490, 1501, 1495, 1490]
ch3 : [2762, 2759, 2765, 2767, 2760, 2749, 2754, 2747, 2755, 2756]
ch0 : [2637, 2595, 2633, 2647, 2476, 2567, 2622, 2623, 2639, 2619]
ch1 : [2481, 2483, 2475, 2492, 2491, 2475, 2468, 2476, 2475, 2474]
ch2 : [1491, 1494, 1486, 1475, 1464, 1495, 1500, 1494, 1492, 1492]
ch3 : [2750, 2740, 2748, 2748, 2748, 2753, 2753, 2754, 2751, 2751]
ch0 : [2646, 2507, 2572, 2637, 2627, 2634, 2609, 2619, 2647, 2605]
ch1 : [2488, 2500, 2475, 2470, 2478, 2477, 2484, 2478, 2492, 2493]
ch2 : [1484, 1485, 1497, 1499, 1499, 1494, 1502, 1496, 1490, 1483]
ch3 : [2746, 2744, 2741, 2738, 2740, 2741, 2738, 2737, 2731, 2731]
ch0 : [2409, 2589, 2629, 2637, 2629, 2598, 2604, 2643, 2567, 2555]
ch1 : [2482, 2476, 2477, 2478, 2483, 2493, 2485, 2497, 2500, 2482]
ch2 : [1494, 1503, 1503, 1499, 1499, 1499, 1496, 1489, 1487, 1502]
ch3 : [2738, 2744, 2741, 2737, 2728, 2732, 2724, 2724, 2730, 2727]
ch0 : [2619, 2631, 2633, 2602, 2613, 2643, 2640, 2411, 2608, 2628]
ch1 : [2481, 2482, 2485, 2490, 2488, 2494, 2504, 2494, 2484, 2489]
ch2 : [1506, 1505, 1506, 1503, 1503, 1497, 1485, 1503, 1508, 1508]
ch3 : [2714, 2729, 2723, 2723, 2724, 2724, 2715, 2716, 2722, 2728]
ch0 : [2640, 2631, 2599, 2596, 2635, 2567, 2560, 2631, 2628, 2636]
ch1 : [2485, 2496, 2493, 2497, 2508, 2514, 2492, 2492, 2499, 2501]
ch2 : [1509, 1502, 1506, 1510, 1498, 1493, 1508, 1525, 1499, 1506]
ch3 : [2724, 2719, 2724, 2722, 2724, 2737, 2734, 2728, 2734, 2733]
ch0 : [2615, 2627, 2639, 2644, 2391, 2589, 2624, 2637, 2642, 2607]
ch1 : [2504, 2506, 2509, 2524, 2507, 2499, 2504, 2508, 2511, 2512]
ch2 : [1506, 1503, 1499, 1487, 1502, 1506, 1507, 1505, 1499, 1502]
ch3 : [2726, 2722, 2730, 2729, 2728, 2723, 2725, 2730, 2725, 2724]
ch0 : [2597, 2641, 2615, 2541, 2612, 2616, 2641, 2626, 2625, 2645]
ch1 : [2511, 2521, 2527, 2507, 2504, 2502, 2510, 2510, 2512, 2517]
ch2 : [1502, 1488, 1497, 1505, 1509, 1503, 1507, 1505, 1499, 1496]
ch3 : [2710, 2715, 2731, 2729, 2732, 2726, 2728, 2721, 2726, 2726]
ch0 : [2626, 2388, 2578, 2629, 2634, 2634, 2606, 2587, 2655, 2637]
ch1 : [2522, 2520, 2507, 2501, 2509, 2512, 2506, 2509, 2519, 2529]
ch2 : [1480, 1498, 1512, 1503, 1502, 1513, 1499, 1501, 1491, 1492]
ch3 : [2727, 2724, 2726, 2729, 2722, 2719, 2715, 2721, 2718, 2733]
ch0 : [2547, 2622, 2631, 2634, 2628, 2638, 2644, 2649, 2368, 2571]
ch1 : [2509, 2504, 2505, 2504, 2511, 2509, 2514, 2523, 2518, 2498]
ch2 : [1506, 1501, 1507, 1508, 1507, 1505, 1501, 1500, 1498, 1513]
ch3 : [2724, 2722, 2719, 2716, 2719, 2722, 2724, 2722, 2728, 2732]
ch0 : [2634, 2632, 2637, 2601, 2606, 2648, 2623, 2551, 2621, 2639]
ch1 : [2504, 2503, 2508, 2508, 2505, 2519, 2517, 2500, 2495, 2500]
ch2 : [1504, 1507, 1502, 1507, 1504, 1494, 1494, 1503, 1518, 1506]
ch3 : [2731, 2732, 2728, 2738, 2732, 2745, 2736, 2731, 2734, 2736]
ch0 : [2636, 2621, 2607, 2644, 2649, 2341, 2571, 2630, 2636, 2638]
ch1 : [2497, 2504, 2502, 2494, 2516, 2509, 2493, 2489, 2493, 2500]
ch2 : [1497, 1503, 1508, 1498, 1475, 1495, 1507, 1505, 1504, 1501]
ch3 : [2732, 2733, 2732, 2728, 2730, 2733, 2736, 2735, 2735, 2718]
ch0 : [2645, 2644, 2327, 2572, 2632, 2623, 2639, 2599, 2585, 2643]
ch1 : [2497, 2510, 2498, 2486, 2485, 2479, 2487, 2500, 2491, 2499]
ch2 : [1497, 1481, 1492, 1503, 1504, 1501, 1498, 1499, 1498, 1493]
ch3 : [2737, 2734, 2733, 2746, 2737, 2741, 2732, 2732, 2735, 2734]
ch0 : [2629, 2526, 2616, 2618, 2635, 2633, 2589, 2643, 2620, 2331]
ch1 : [2498, 2498, 2481, 2483, 2489, 2489, 2488, 2488, 2500, 2495]
ch2 : [1482, 1494, 1508, 1502, 1499, 1501, 1497, 1498, 1483, 1490]
ch3 : [2746, 2737, 2734, 2732, 2733, 2735, 2731, 2737, 2735, 2734]
ch0 : [2566, 2635, 2629, 2643, 2614, 2608, 2647, 2637, 2509, 2616]
ch1 : [2468, 2469, 2479, 2485, 2485, 2484, 2487, 2498, 2481, 2476]
ch2 : [1506, 1503, 1502, 1503, 1504, 1499, 1492, 1486, 1501, 1509]
ch3 : [2740, 2738, 2735, 2737, 2739, 2742, 2741, 2757, 2751, 2739]
ch0 : [2636, 2638, 2639, 2586, 2642, 2646, 2315, 2564, 2618, 2641]
ch1 : [2476, 2473, 2476, 2477, 2482, 2495, 2490, 2475, 2476, 2475]
ch2 : [1503, 1503, 1506, 1501, 1485, 1478, 1489, 1505, 1503, 1514]
ch3 : [2747, 2751, 2749, 2747, 2748, 2747, 2748, 2756, 2752, 2751]
ch0 : [2635, 2616, 2608, 2650, 2650, 2509, 2615, 2629, 2638, 2631]
ch1 : [2483, 2494, 2482, 2483, 2492, 2477, 2477, 2472, 2477, 2485]
ch2 : [1508, 1497, 1500, 1489, 1479, 1501, 1501, 1501, 1498, 1499]
ch3 : [2747, 2744, 2747, 2750, 2750, 2751, 2751, 2752, 2752, 2750]
ch0 : [2588, 2585, 2646, 2318, 2546, 2607, 2633, 2636, 2609, 2604]
ch1 : [2479, 2477, 2492, 2502, 2472, 2471, 2476, 2500, 2481, 2478]
ch2 : [1494, 1493, 1482, 1488, 1486, 1503, 1498, 1494, 1496, 1486]
ch3 : [2750, 2756, 2742, 2751, 2757, 2758, 2756, 2752, 2753, 2754]
ch0 : [2626, 2614, 2495, 2621, 2625, 2631, 2628, 2596, 2566, 2644]
ch1 : [2501, 2495, 2479, 2470, 2474, 2477, 2479, 2480, 2481, 2497]
ch2 : [1490, 1483, 1499, 1501, 1499, 1499, 1495, 1493, 1497, 1482]
ch3 : [2757, 2759, 2769, 2749, 2759, 2760, 2758, 2759, 2769, 2762]
ch0 : [2327, 2544, 2623, 2630, 2636, 2606, 2596, 2644, 2632, 2493]
ch1 : [2495, 2473, 2476, 2477, 2481, 2483, 2483, 2491, 2494, 2480]
ch2 : [1481, 1501, 1505, 1501, 1493, 1498, 1500, 1490, 1478, 1496]
ch3 : [2760, 2768, 2765, 2765, 2760, 2760, 2759, 2762, 2769, 2768]
ch0 : [2612, 2628, 2633, 2633, 2591, 2559, 2646, 2399, 2531, 2607]
ch1 : [2481, 2482, 2480, 2486, 2501, 2485, 2495, 2496, 2479, 2476]
ch2 : [1503, 1502, 1505, 1504, 1500, 1502, 1489, 1484, 1503, 1504]
ch3 : [2769, 2766, 2769, 2766, 2767, 2767, 2768, 2768, 2772, 2775]
ch0 : [2627, 2641, 2609, 2614, 2637, 2642, 2476, 2607, 2628, 2635]
ch1 : [2482, 2489, 2483, 2488, 2490, 2500, 2491, 2486, 2485, 2474]
ch2 : [1503, 1498, 1500, 1498, 1490, 1489, 1492, 1499, 1501, 1504]
ch3 : [2764, 2768, 2761, 2764, 2767, 2777, 2775, 2775, 2773, 2772]
ch0 : [2640, 2594, 2572, 2646, 2454, 2525, 2606, 2633, 2635, 2610]
ch1 : [2492, 2497, 2491, 2502, 2511, 2493, 2487, 2490, 2497, 2503]
ch2 : [1507, 1498, 1502, 1482, 1475, 1505, 1502, 1502, 1497, 1497]
ch3 : [2772, 2771, 2774, 2771, 2772, 2778, 2781, 2778, 2776, 2774]
ch0 : [2629, 2644, 2632, 2469, 2603, 2630, 2636, 2627, 2606, 2576]
ch1 : [2508, 2501, 2511, 2514, 2492, 2490, 2509, 2500, 2498, 2500]
ch2 : [1497, 1492, 1479, 1496, 1503, 1502, 1499, 1501, 1496, 1501]
ch3 : [2776, 2778, 2779, 2770, 2779, 2781, 2776, 2772, 2779, 2778]
ch0 : [2648, 2457, 2528, 2610, 2631, 2638, 2616, 2619, 2647, 2635]
ch1 : [2514, 2519, 2509, 2492, 2496, 2501, 2503, 2499, 2505, 2515]
ch2 : [1487, 1481, 1502, 1502, 1501, 1495, 1499, 1497, 1491, 1482]
ch3 : [2781, 2780, 2786, 2794, 2787, 2778, 2777, 2782, 2777, 2784]
ch0 : [2457, 2598, 2627, 2630, 2645, 2607, 2565, 2646, 2540, 2498]
ch1 : [2509, 2493, 2498, 2498, 2499, 2507, 2502, 2515, 2516, 2498]
ch2 : [1494, 1500, 1501, 1498, 1500, 1497, 1497, 1478, 1464, 1500]
ch3 : [2787, 2783, 2781, 2775, 2781, 2779, 2783, 2784, 2781, 2788]
ch0 : [2615, 2630, 2635, 2620, 2627, 2646, 2639, 2441, 2596, 2634]
ch1 : [2495, 2498, 2504, 2503, 2503, 2510, 2515, 2507, 2499, 2481]
ch2 : [1503, 1499, 1498, 1482, 1494, 1495, 1478, 1495, 1517, 1499]
ch3 : [2785, 2787, 2782, 2779, 2782, 2782, 2796, 2787, 2785, 2785]
ch0 : [2633, 2631, 2612, 2568, 2645, 2642, 2500, 2617, 2627, 2640]
ch1 : [2494, 2500, 2505, 2501, 2507, 2518, 2492, 2490, 2493, 2502]
ch2 : [1501, 1500, 1498, 1498, 1483, 1480, 1500, 1506, 1488, 1496]
ch3 : [2783, 2784, 2783, 2786, 2782, 2783, 2783, 2789, 2789, 2774]
ch0 : [2622, 2624, 2650, 2648, 2430, 2599, 2626, 2621, 2640, 2598]
ch1 : [2502, 2495, 2507, 2509, 2504, 2493, 2492, 2495, 2495, 2497]
ch2 : [1494, 1495, 1490, 1475, 1495, 1500, 1503, 1498, 1510, 1509]
ch3 : [2782, 2782, 2790, 2785, 2790, 2789, 2788, 2789, 2784, 2784]
ch0 : [2583, 2646, 2638, 2501, 2622, 2628, 2641, 2633, 2614, 2648]
ch1 : [2497, 2502, 2514, 2492, 2499, 2492, 2495, 2495, 2500, 2494]
ch2 : [1490, 1495, 1479, 1495, 1502, 1498, 1501, 1497, 1495, 1500]
ch3 : [2785, 2779, 2784, 2791, 2788, 2792, 2786, 2779, 2782, 2782]
ch0 : [2646, 2428, 2592, 2629, 2632, 2636, 2607, 2580, 2646, 2647]
ch1 : [2504, 2502, 2485, 2489, 2477, 2495, 2495, 2493, 2500, 2509]
ch2 : [1474, 1489, 1500, 1503, 1497, 1495, 1496, 1497, 1480, 1479]
ch3 : [2783, 2793, 2790, 2788, 2788, 2789, 2787, 2783, 2786, 2797]
ch0 : [2477, 2603, 2631, 2637, 2621, 2624, 2640, 2644, 2421, 2593]
ch1 : [2489, 2486, 2488, 2489, 2492, 2496, 2487, 2503, 2499, 2488]
ch2 : [1496, 1499, 1499, 1497, 1493, 1495, 1481, 1480, 1490, 1497]
ch3 : [2794, 2791, 2792, 2788, 2789, 2785, 2790, 2792, 2794, 2787]
ch0 : [2644, 2620, 2609, 2638, 2643, 2388, 2581, 2627, 2625, 2636]
ch1 : [2487, 2494, 2499, 2489, 2503, 2497, 2496, 2486, 2485, 2495]
ch2 : [1499, 1498, 1497, 1495, 1493, 1486, 1500, 1500, 1497, 1495]
ch3 : [2792, 2791, 2789, 2789, 2790, 2797, 2792, 2793, 2795, 2789]
ch0 : [2614, 2588, 2643, 2646, 2460, 2595, 2631, 2637, 2620, 2600]
ch1 : [2490, 2493, 2504, 2510, 2505, 2480, 2479, 2489, 2492, 2490]
ch2 : [1496, 1496, 1472, 1476, 1496, 1503, 1498, 1495, 1493, 1496]
ch3 : [2794, 2791, 2789, 2795, 2792, 2799, 2795, 2793, 2790, 2791]
ch0 : [2637, 2641, 2405, 2571, 2632, 2608, 2635, 2606, 2604, 2647]
ch1 : [2488, 2495, 2501, 2485, 2480, 2484, 2487, 2495, 2491, 2481]
ch2 : [1495, 1480, 1486, 1502, 1499, 1503, 1490, 1495, 1506, 1489]
ch3 : [2793, 2797, 2800, 2800, 2791, 2796, 2792, 2792, 2796, 2796]
ch0 : [2628, 2447, 2591, 2618, 2642, 2636, 2600, 2633, 2644, 2472]
ch1 : [2512, 2485, 2480, 2481, 2486, 2490, 2488, 2488, 2501, 2501]
ch2 : [1476, 1496, 1497, 1508, 1492, 1498, 1510, 1495, 1482, 1486]
ch3 : [2793, 2795, 2799, 2800, 2797, 2792, 2795, 2784, 2800, 2798]
ch0 : [2571, 2630, 2606, 2629, 2610, 2598, 2646, 2635, 2431, 2598]
ch1 : [2482, 2481, 2483, 2485, 2489, 2489, 2495, 2504, 2489, 2486]
ch2 : [1504, 1501, 1500, 1496, 1495, 1497, 1488, 1481, 1494, 1502]
ch3 : [2799, 2798, 2800, 2797, 2795, 2796, 2797, 2791, 2799, 2800]
ch0 : [2629, 2637, 2628, 2589, 2605, 2644, 2510, 2564, 2630, 2627]
ch1 : [2481, 2485, 2492, 2495, 2488, 2502, 2502, 2485, 2488, 2489]
ch2 : [1502, 1495, 1513, 1495, 1496, 1477, 1497, 1500, 1499, 1498]
ch3 : [2802, 2798, 2793, 2796, 2795, 2798, 2803, 2801, 2791, 2799]
ch0 : [2639, 2607, 2623, 2646, 2639, 2408, 2609, 2632, 2639, 2636]
ch1 : [2488, 2490, 2494, 2500, 2511, 2499, 2485, 2487, 2489, 2498]
ch2 : [1499, 1497, 1495, 1487, 1476, 1491, 1500, 1495, 1500, 1494]
ch3 : [2795, 2795, 2801, 2799, 2799, 2800, 2802, 2804, 2802, 2805]
ch0 : [2608, 2608, 2646, 2557, 2559, 2623, 2628, 2651, 2616, 2610]
ch1 : [2498, 2500, 2520, 2503, 2493, 2487, 2489, 2490, 2502, 2498]
ch2 : [1495, 1487, 1481, 1485, 1497, 1501, 1494, 1494, 1494, 1494]
ch3 : [2800, 2799, 2800, 2803, 2803, 2800, 2800, 2802, 2808, 2802]
ch0 : [2648, 2624, 2399, 2585, 2639, 2638, 2646, 2607, 2604, 2649]
ch1 : [2501, 2513, 2492, 2488, 2487, 2487, 2501, 2501, 2498, 2507]
ch2 : [1491, 1483, 1496, 1499, 1509, 1495, 1494, 1493, 1495, 1483]
ch3 : [2800, 2794, 2802, 2804, 2803, 2805, 2806, 2785, 2798, 2802]
ch0 : [2586, 2553, 2635, 2629, 2639, 2628, 2621, 2659, 2643, 2402]
ch1 : [2514, 2494, 2491, 2490, 2495, 2501, 2495, 2500, 2515, 2500]
ch2 : [1469, 1497, 1504, 1503, 1495, 1495, 1498, 1488, 1481, 1508]
ch3 : [2807, 2808, 2802, 2802, 2802, 2805, 2803, 2800, 2801, 2804]
ch0 : [2597, 2622, 2640, 2640, 2611, 2606, 2649, 2599, 2547, 2613]
ch1 : [2488, 2486, 2490, 2502, 2499, 2505, 2507, 2510, 2496, 2493]
ch2 : [1501, 1499, 1507, 1497, 1495, 1494, 1484, 1476, 1499, 1500]
ch3 : [2801, 2803, 2808, 2801, 2799, 2800, 2802, 2804, 2807, 2811]
ch0 : [2618, 2634, 2644, 2616, 2647, 2639, 2381, 2582, 2634, 2646]
ch1 : [2491, 2490, 2492, 2498, 2495, 2513, 2506, 2489, 2487, 2491]
ch2 : [1497, 1496, 1492, 1494, 1496, 1481, 1490, 1503, 1497, 1498]
ch3 : [2803, 2798, 2805, 2804, 2803, 2802, 2803, 2803, 2807, 2797]
ch0 : [2640, 2603, 2607, 2649, 2644, 2535, 2628, 2616, 2639, 2626]
ch1 : [2498, 2498, 2495, 2505, 2507, 2501, 2491, 2492, 2504, 2495]
ch2 : [1498, 1495, 1498, 1483, 1481, 1497, 1503, 1497, 1499, 1510]
ch3 : [2803, 2804, 2799, 2804, 2807, 2807, 2804, 2807, 2805, 2804]
ch0 : [2599, 2643, 2648, 2355, 2581, 2619, 2629, 2644, 2613, 2600]
ch1 : [2500, 2495, 2508, 2499, 2485, 2483, 2487, 2493, 2494, 2493]
ch2 : [1498, 1492, 1478, 1492, 1506, 1504, 1500, 1493, 1491, 1496]
ch3 : [2803, 2808, 2804, 2806, 2806, 2808, 2806, 2801, 2801, 2804]
ch0 : [2649, 2641, 2533, 2628, 2629, 2640, 2638, 2622, 2649, 2648]
ch1 : [2502, 2505, 2497, 2491, 2475, 2503, 2490, 2489, 2479, 2509]
ch2 : [1486, 1481, 1496, 1515, 1498, 1495, 1502, 1491, 1501, 1479]
ch3 : [2804, 2811, 2808, 2808, 2803, 2806, 2802, 2803, 2806, 2803]
ch0 : [2379, 2593, 2630, 2634, 2640, 2605, 2593, 2646, 2649, 2531]
ch1 : [2495, 2482, 2482, 2480, 2495, 2491, 2488, 2496, 2501, 2483]
ch2 : [1495, 1500, 1501, 1495, 1495, 1494, 1500, 1484, 1489, 1496]
ch3 : [2799, 2810, 2805, 2808, 2799, 2807, 2807, 2803, 2808, 2813]
ch0 : [2633, 2626, 2640, 2632, 2602, 2645, 2649, 2338, 2566, 2628]
ch1 : [2483, 2486, 2487, 2486, 2505, 2492, 2502, 2496, 2484, 2475]
ch2 : [1503, 1502, 1503, 1496, 1496, 1496, 1480, 1492, 1502, 1494]
ch3 : [2810, 2806, 2806, 2809, 2807, 2810, 2804, 2807, 2810, 2815]
ch0 : [2634, 2644, 2612, 2614, 2652, 2636, 2522, 2623, 2622, 2638]
ch1 : [2483, 2490, 2493, 2486, 2500, 2503, 2486, 2478, 2481, 2489]
ch2 : [1503, 1496, 1490, 1511, 1486, 1469, 1494, 1514, 1501, 1498]
ch3 : [2808, 2794, 2804, 2805, 2809, 2812, 2810, 2809, 2808, 2808]
ch0 : [2638, 2606, 2642, 2644, 2339, 2569, 2632, 2617, 2635, 2607]
ch1 : [2491, 2487, 2491, 2506, 2497, 2481, 2488, 2485, 2486, 2492]
ch2 : [1500, 1497, 1493, 1484, 1490, 1506, 1502, 1499, 1498, 1497]
ch3 : [2806, 2809, 2812, 2811, 2807, 2812, 2813, 2810, 2808, 2808]
ch0 : [2610, 2648, 2635, 2504, 2619, 2634, 2639, 2635, 2593, 2617]
ch1 : [2484, 2492, 2494, 2483, 2475, 2477, 2479, 2490, 2480, 2478]
ch2 : [1479, 1487, 1485, 1497, 1505, 1496, 1503, 1498, 1498, 1499]
ch3 : [2807, 2812, 2812, 2812, 2811, 2808, 2810, 2811, 2811, 2813]
ch0 : [2639, 2309, 2556, 2621, 2630, 2641, 2601, 2612, 2646, 2646]
ch1 : [2497, 2489, 2469, 2469, 2473, 2479, 2477, 2474, 2481, 2489]
ch2 : [1485, 1484, 1505, 1503, 1500, 1499, 1493, 1500, 1489, 1484]
ch3 : [2809, 2808, 2813, 2815, 2812, 2808, 2804, 2809, 2812, 2812]
ch0 : [2508, 2614, 2634, 2638, 2626, 2587, 2577, 2635, 2356, 2543]
ch1 : [2471, 2467, 2467, 2468, 2473, 2475, 2470, 2485, 2485, 2459]
ch2 : [1504, 1504, 1502, 1496, 1503, 1498, 1500, 1488, 1488, 1506]
ch3 : [2815, 2812, 2810, 2808, 2810, 2813, 2811, 2809, 2804, 2818]
ch0 : [2618, 2638, 2637, 2601, 2598, 2648, 2645, 2481, 2609, 2627]
ch1 : [2466, 2468, 2470, 2487, 2471, 2476, 2480, 2463, 2461, 2465]
ch2 : [1499, 1500, 1501, 1498, 1499, 1495, 1485, 1499, 1503, 1502]
ch3 : [2815, 2804, 2808, 2804, 2810, 2808, 2812, 2814, 2809, 2807]
ch0 : [2628, 2596, 2640, 2645, 2471, 2599, 2632, 2634, 2639, 2579]
ch1 : [2470, 2470, 2474, 2479, 2469, 2465, 2462, 2467, 2470, 2467]
ch2 : [1498, 1500, 1489, 1488, 1497, 1505, 1497, 1499, 1497, 1498]
ch3 : [2811, 2811, 2813, 2809, 2818, 2813, 2809, 2812, 2813, 2813]
ch0 : [2572, 2645, 2424, 2533, 2630, 2630, 2639, 2596, 2613, 2642]
ch1 : [2467, 2480, 2483, 2470, 2458, 2466, 2473, 2471, 2469, 2477]
ch2 : [1499, 1489, 1487, 1506, 1499, 1498, 1497, 1499, 1499, 1493]
ch3 : [2812, 2811, 2813, 2816, 2817, 2812, 2823, 2798, 2813, 2812]
ch0 : [2643, 2476, 2597, 2627, 2634, 2633, 2604, 2573, 2646, 2440]
ch1 : [2484, 2474, 2460, 2465, 2466, 2471, 2472, 2470, 2485, 2489]
ch2 : [1487, 1496, 1504, 1507, 1498, 1503, 1500, 1514, 1486, 1484]
ch3 : [2815, 2818, 2815, 2813, 2812, 2812, 2815, 2820, 2815, 2813]
ch0 : [2534, 2612, 2632, 2635, 2614, 2620, 2644, 2644, 2459, 2591]
ch1 : [2464, 2466, 2465, 2470, 2475, 2453, 2475, 2481, 2473, 2465]
ch2 : [1505, 1504, 1506, 1501, 1499, 1502, 1493, 1480, 1495, 1505]
ch3 : [2810, 2818, 2815, 2814, 2812, 2825, 2815, 2817, 2815, 2808]
ch0 : [2637, 2641, 2636, 2605, 2556, 2643, 2568, 2513, 2603, 2633]
ch1 : [2466, 2470, 2471, 2476, 2467, 2486, 2490, 2473, 2466, 2472]
ch2 : [1505, 1503, 1496, 1505, 1498, 1489, 1480, 1497, 1513, 1503]
ch3 : [2814, 2816, 2810, 2816, 2816, 2814, 2815, 2817, 2818, 2815]
ch0 : [2639, 2605, 2617, 2649, 2647, 2427, 2604, 2629, 2637, 2635]
ch1 : [2471, 2479, 2474, 2480, 2489, 2484, 2468, 2471, 2472, 2474]
ch2 : [1500, 1501, 1503, 1493, 1481, 1494, 1489, 1501, 1501, 1502]
ch3 : [2812, 2811, 2807, 2811, 2811, 2824, 2812, 2818, 2815, 2811]
ch0 : [2600, 2552, 2645, 2596, 2508, 2618, 2628, 2637, 2613, 2623]
ch1 : [2478, 2472, 2491, 2495, 2473, 2470, 2469, 2478, 2487, 2471]
ch2 : [1503, 1500, 1486, 1482, 1501, 1503, 1508, 1499, 1497, 1500]
ch3 : [2813, 2817, 2812, 2813, 2815, 2817, 2824, 2815, 2807, 2812]
ch0 : [2642, 2644, 2433, 2599, 2622, 2633, 2634, 2596, 2569, 2646]
ch1 : [2479, 2489, 2481, 2469, 2473, 2472, 2476, 2479, 2477, 2484]
ch2 : [1496, 1485, 1511, 1503, 1502, 1500, 1497, 1499, 1501, 1489]
ch3 : [2813, 2814, 2818, 2814, 2814, 2814, 2814, 2815, 2805, 2816]
ch0 : [2644, 2491, 2621, 2625, 2637, 2615, 2602, 2645, 2639, 2423]
ch1 : [2489, 2471, 2464, 2471, 2476, 2477, 2486, 2477, 2488, 2484]
ch2 : [1486, 1501, 1508, 1499, 1498, 1501, 1502, 1499, 1484, 1494]
ch3 : [2813, 2817, 2820, 2817, 2814, 2809, 2813, 2816, 2815, 2820]
ch0 : [2589, 2627, 2627, 2624, 2598, 2554, 2635, 2631, 2473, 2606]
ch1 : [2471, 2472, 2471, 2476, 2481, 2476, 2494, 2494, 2473, 2469]
ch2 : [1504, 1506, 1502, 1502, 1500, 1505, 1491, 1475, 1502, 1504]
ch3 : [2815, 2817, 2815, 2812, 2814, 2815, 2814, 2814, 2820, 2818]
ch0 : [2638, 2637, 2623, 2620, 2638, 2641, 2403, 2586, 2624, 2607]
ch1 : [2469, 2472, 2469, 2478, 2486, 2492, 2485, 2470, 2474, 2478]
ch2 : [1497, 1498, 1500, 1495, 1499, 1489, 1491, 1509, 1499, 1502]
ch3 : [2814, 2815, 2812, 2814, 2812, 2815, 2819, 2817, 2816, 2817]
ch0 : [2636, 2604, 2581, 2645, 2630, 2469, 2604, 2627, 2637, 2621]
ch1 : [2476, 2478, 2479, 2492, 2496, 2474, 2473, 2478, 2479, 2484]
ch2 : [1500, 1501, 1494, 1489, 1485, 1496, 1493, 1508, 1502, 1495]
ch3 : [2809, 2817, 2820, 2814, 2823, 2816, 2818, 2821, 2816, 2810]
ch0 : [2598, 2638, 2645, 2392, 2583, 2628, 2627, 2637, 2607, 2577]
ch1 : [2484, 2481, 2495, 2488, 2466, 2482, 2479, 2487, 2485, 2486]
ch2 : [1502, 1502, 1483, 1488, 1499, 1503, 1505, 1498, 1501, 1499]
ch3 : [2815, 2807, 2815, 2823, 2815, 2809, 2815, 2801, 2813, 2811]
ch0 : [2645, 2619, 2458, 2585, 2627, 2634, 2632, 2600, 2634, 2646]
ch1 : [2496, 2500, 2486, 2466, 2471, 2479, 2483, 2487, 2480, 2499]
ch2 : [1485, 1482, 1500, 1506, 1503, 1500, 1500, 1503, 1499, 1486]
ch3 : [2815, 2813, 2816, 2817, 2811, 2814, 2809, 2810, 2811, 2810]
ch0 : [2405, 2582, 2622, 2619, 2629, 2609, 2591, 2644, 2644, 2449]
ch1 : [2495, 2477, 2480, 2479, 2483, 2487, 2487, 2499, 2500, 2489]
ch2 : [1489, 1507, 1503, 1500, 1500, 1500, 1503, 1490, 1480, 1499]
ch3 : [2810, 2812, 2814, 2814, 2811, 2811, 2800, 2801, 2808, 2811]
ch0 : [2602, 2626, 2642, 2635, 2600, 2639, 2649, 2450, 2574, 2628]
ch1 : [2478, 2482, 2485, 2493, 2492, 2490, 2500, 2506, 2495, 2484]
ch2 : [1514, 1503, 1502, 1495, 1490, 1498, 1484, 1493, 1504, 1502]
ch3 : [2808, 2809, 2810, 2805, 2801, 2800, 2800, 2807, 2809, 2810]
ch0 : [2621, 2638, 2607, 2597, 2645, 2644, 2427, 2592, 2624, 2638]
ch1 : [2485, 2491, 2487, 2491, 2497, 2511, 2493, 2486, 2485, 2492]
ch2 : [1505, 1513, 1498, 1512, 1488, 1480, 1496, 1505, 1502, 1501]
ch3 : [2820, 2799, 2799, 2801, 2803, 2798, 2807, 2820, 2819, 2804]
ch0 : [2609, 2646, 2629, 2406, 2584, 2629, 2636, 2633, 2612, 2596]
ch1 : [2497, 2499, 2509, 2497, 2480, 2484, 2489, 2500, 2497, 2497]
ch2 : [1498, 1495, 1483, 1497, 1507, 1507, 1500, 1498, 1497, 1497]
ch3 : [2813, 2806, 2806, 2805, 2806, 2811, 2813, 2809, 2808, 2808]
ch0 : [2647, 2583, 2568, 2636, 2625, 2633, 2609, 2619, 2648, 2643]
ch1 : [2509, 2507, 2498, 2490, 2490, 2493, 2498, 2495, 2502, 2512]
ch2 : [1502, 1470, 1501, 1505, 1494, 1499, 1501, 1499, 1492, 1481]
ch3 : [2809, 2807, 2805, 2796, 2801, 2804, 2797, 2795, 2802, 2795]
ch0 : [2404, 2591, 2629, 2635, 2631, 2609, 2595, 2646, 2611, 2556]
ch1 : [2496, 2488, 2489, 2491, 2505, 2499, 2498, 2513, 2517, 2497]
ch2 : [1492, 1503, 1503, 1497, 1497, 1502, 1497, 1486, 1484, 1503]
ch3 : [2801, 2801, 2805, 2801, 2793, 2800, 2805, 2812, 2808, 2808]
ch0 : [2630, 2623, 2630, 2633, 2621, 2647, 2647, 2372, 2565, 2637]
ch1 : [2492, 2493, 2499, 2500, 2503, 2504, 2516, 2508, 2491, 2490]
ch2 : [1502, 1501, 1502, 1499, 1498, 1498, 1480, 1495, 1505, 1503]
ch3 : [2808, 2804, 2801, 2815, 2818, 2812, 2795, 2803, 2817, 2826]
ch0 : [2633, 2640, 2599, 2603, 2645, 2603, 2541, 2634, 2613, 2640]
ch1 : [2500, 2515, 2504, 2500, 2514, 2514, 2494, 2499, 2498, 2497]
ch2 : [1498, 1497, 1500, 1490, 1486, 1485, 1501, 1503, 1499, 1499]
ch3 : [2822, 2806, 2805, 2805, 2808, 2805, 2804, 2798, 2801, 2804]
ch0 : [2624, 2627, 2649, 2652, 2376, 2579, 2625, 2631, 2644, 2607]
ch1 : [2508, 2503, 2508, 2511, 2507, 2496, 2496, 2501, 2504, 2503]
ch2 : [1500, 1497, 1497, 1480, 1491, 1502, 1496, 1501, 1495, 1513]
ch3 : [2808, 2803, 2801, 2794, 2805, 2801, 2801, 2800, 2790, 2789]
ch0 : [2591, 2648, 2632, 2538, 2627, 2621, 2622, 2641, 2626, 2644]
ch1 : [2502, 2515, 2531, 2502, 2493, 2498, 2495, 2502, 2505, 2509]
ch2 : [1495, 1485, 1496, 1493, 1504, 1501, 1496, 1501, 1499, 1497]
ch3 : [2785, 2795, 2796, 2793, 2793, 2801, 2798, 2786, 2788, 2789]
ch0 : [2648, 2349, 2591, 2633, 2625, 2643, 2606, 2596, 2649, 2633]
ch1 : [2518, 2512, 2495, 2508, 2500, 2503, 2505, 2505, 2512, 2515]
ch2 : [1485, 1504, 1498, 1503, 1501, 1501, 1498, 1483, 1487, 1481]
ch3 : [2788, 2790, 2790, 2789, 2790, 2789, 2784, 2786, 2787, 2783]
ch0 : [2532, 2624, 2615, 2637, 2630, 2586, 2646, 2642, 2341, 2564]
ch1 : [2503, 2500, 2500, 2497, 2501, 2501, 2499, 2520, 2509, 2501]
ch2 : [1502, 1504, 1506, 1504, 1501, 1497, 1500, 1483, 1491, 1499]
ch3 : [2781, 2773, 2768, 2773, 2776, 2785, 2782, 2772, 2767, 2772]
ch0 : [2626, 2631, 2640, 2604, 2602, 2647, 2639, 2521, 2618, 2620]
ch1 : [2485, 2497, 2498, 2503, 2498, 2507, 2511, 2498, 2495, 2497]
ch2 : [1507, 1501, 1501, 1499, 1504, 1490, 1484, 1501, 1506, 1505]
ch3 : [2774, 2777, 2770, 2770, 2768, 2759, 2775, 2770, 2763, 2760]
ch0 : [2607, 2604, 2651, 2625, 2513, 2620, 2626, 2641, 2627, 2599]
ch1 : [2519, 2505, 2526, 2521, 2491, 2506, 2503, 2502, 2506, 2506]
ch2 : [1504, 1503, 1493, 1490, 1506, 1510, 1508, 1505, 1504, 1503]
ch3 : [2747, 2760, 2760, 2761, 2755, 2753, 2755, 2756, 2753, 2756]
ch0 : [2597, 2647, 2321, 2556, 2617, 2633, 2641, 2615, 2600, 2648]
ch1 : [2507, 2517, 2524, 2500, 2500, 2504, 2511, 2509, 2511, 2520]
ch2 : [1503, 1490, 1496, 1513, 1510, 1508, 1507, 1505, 1505, 1498]
ch3 : [2756, 2754, 2754, 2756, 2761, 2757, 2756, 2746, 2754, 2749]
ch0 : [2646, 2509, 2618, 2634, 2638, 2633, 2602, 2573, 2643, 2326]
ch1 : [2528, 2514, 2507, 2510, 2514, 2522, 2520, 2516, 2534, 2532]
ch2 : [1498, 1507, 1513, 1510, 1507, 1508, 1514, 1510, 1503, 1501]
ch3 : [2753, 2751, 2752, 2747, 2741, 2742, 2736, 2733, 2736, 2739]
ch0 : [2558, 2625, 2628, 2637, 2590, 2608, 2647, 2645, 2487, 2632]
ch1 : [2513, 2517, 2521, 2526, 2527, 2527, 2536, 2542, 2532, 2528]
ch2 : [1513, 1517, 1509, 1505, 1515, 1511, 1503, 1501, 1510, 1518]
ch3 : [2735, 2738, 2734, 2731, 2736, 2743, 2729, 2735, 2734, 2727]
ch0 : [2621, 2638, 2642, 2582, 2588, 2645, 2399, 2540, 2637, 2634]
ch1 : [2526, 2531, 2536, 2539, 2539, 2552, 2556, 2535, 2539, 2543]
ch2 : [1517, 1530, 1518, 1513, 1513, 1504, 1495, 1532, 1506, 1515]
ch3 : [2732, 2730, 2729, 2725, 2726, 2732, 2723, 2727, 2730, 2734]
ch0 : [2639, 2598, 2617, 2646, 2645, 2467, 2616, 2634, 2639, 2638]
ch1 : [2549, 2555, 2551, 2559, 2556, 2559, 2550, 2557, 2560, 2567]
ch2 : [1512, 1509, 1512, 1503, 1497, 1515, 1518, 1515, 1521, 1511]
ch3 : [2726, 2727, 2726, 2723, 2729, 2728, 2723, 2732, 2731, 2741]
ch0 : [2602, 2570, 2649, 2464, 2545, 2616, 2631, 2646, 2598, 2625]
ch1 : [2567, 2561, 2573, 2583, 2565, 2563, 2565, 2570, 2574, 2560]
ch2 : [1513, 1519, 1501, 1498, 1516, 1519, 1517, 1515, 1511, 1515]
ch3 : [2729, 2729, 2728, 2727, 2731, 2736, 2733, 2727, 2741, 2727]
ch0 : [2641, 2638, 2488, 2612, 2634, 2642, 2640, 2607, 2570, 2650]
ch1 : [2579, 2581, 2572, 2566, 2563, 2559, 2570, 2565, 2564, 2577]
ch2 : [1520, 1500, 1512, 1517, 1521, 1518, 1516, 1515, 1517, 1502]
ch3 : [2738, 2727, 2733, 2736, 2730, 2729, 2720, 2719, 2720, 2728]
ch0 : [2531, 2523, 2620, 2636, 2642, 2616, 2628, 2648, 2646, 2455]
ch1 : [2574, 2552, 2547, 2545, 2549, 2551, 2548, 2556, 2555, 2541]
ch2 : [1503, 1520, 1521, 1520, 1514, 1517, 1517, 1511, 1503, 1513]
ch3 : [2721, 2724, 2728, 2726, 2723, 2710, 2725, 2721, 2731, 2729]
ch0 : [2607, 2637, 2639, 2637, 2615, 2570, 2654, 2610, 2508, 2616]
ch1 : [2539, 2537, 2543, 2542, 2545, 2544, 2552, 2559, 2530, 2531]
ch2 : [1521, 1520, 1522, 1515, 1516, 1516, 1498, 1502, 1518, 1522]
ch3 : [2731, 2732, 2730, 2727, 2729, 2732, 2736, 2730, 2738, 2735]
ch0 : [2636, 2646, 2615, 2630, 2655, 2644, 2439, 2609, 2635, 2631]
ch1 : [2531, 2536, 2539, 2534, 2541, 2548, 2548, 2514, 2526, 2527]
ch2 : [1517, 1516, 1512, 1513, 1507, 1499, 1511, 1524, 1524, 1515]
ch3 : [2725, 2724, 2726, 2725, 2728, 2733, 2737, 2731, 2723, 2729]
ch0 : [2635, 2615, 2577, 2650, 2582, 2494, 2612, 2634, 2643, 2612]
ch1 : [2529, 2519, 2524, 2538, 2544, 2520, 2527, 2514, 2528, 2518]
ch2 : [1513, 1510, 1513, 1499, 1498, 1515, 1516, 1512, 1512, 1510]
ch3 : [2720, 2728, 2728, 2723, 2727, 2735, 2737, 2738, 2733, 2737]
ch0 : [2623, 2650, 2643, 2414, 2594, 2626, 2610, 2624, 2609, 2570]
ch1 : [2516, 2521, 2533, 2528, 2512, 2522, 2511, 2513, 2516, 2515]
ch2 : [1509, 1506, 1497, 1504, 1509, 1510, 1510, 1509, 1509, 1513]
ch3 : [2731, 2730, 2734, 2738, 2740, 2736, 2738, 2736, 2737, 2737]
ch0 : [2646, 2633, 2491, 2600, 2626, 2641, 2625, 2607, 2644, 2644]
ch1 : [2520, 2524, 2510, 2508, 2509, 2507, 2512, 2511, 2509, 2524]
ch2 : [1496, 1492, 1511, 1515, 1514, 1512, 1506, 1509, 1507, 1494]
ch3 : [2738, 2737, 2739, 2741, 2741, 2737, 2731, 2737, 2740, 2739]
ch0 : [2414, 2584, 2633, 2613, 2636, 2592, 2576, 2645, 2602, 2472]
ch1 : [2515, 2503, 2499, 2512, 2504, 2505, 2505, 2510, 2518, 2498]
ch2 : [1501, 1516, 1514, 1515, 1511, 1511, 1512, 1498, 1496, 1512]
ch3 : [2739, 2746, 2739, 2744, 2742, 2744, 2742, 2743, 2742, 2745]
ch0 : [2606, 2634, 2647, 2604, 2599, 2642, 2644, 2405, 2576, 2626]
ch1 : [2484, 2484, 2495, 2495, 2495, 2493, 2504, 2499, 2483, 2482]
ch2 : [1519, 1514, 1512, 1510, 1512, 1510, 1499, 1506, 1513, 1522]
ch3 : [2753, 2758, 2741, 2741, 2745, 2747, 2750, 2752, 2750, 2756]
ch0 : [2619, 2622, 2635, 2635, 2404, 2586, 2632, 2629, 2634, 2598]
ch1 : [2484, 2479, 2480, 2494, 2490, 2472, 2472, 2480, 2476, 2484]
ch2 : [1511, 1510, 1510, 1493, 1503, 1518, 1500, 1510, 1512, 1519]
ch3 : [2747, 2750, 2748, 2754, 2764, 2757, 2759, 2755, 2756, 2756]
ch0 : [2585, 2642, 2634, 2444, 2603, 2625, 2633, 2635, 2594, 2641]
ch1 : [2487, 2490, 2498, 2479, 2470, 2471, 2476, 2481, 2480, 2478]
ch2 : [1512, 1503, 1497, 1510, 1506, 1515, 1515, 1506, 1509, 1510]
ch3 : [2761, 2753, 2755, 2758, 2760, 2763, 2762, 2757, 2760, 2757]
ch0 : [2633, 2422, 2584, 2630, 2623, 2631, 2599, 2600, 2647, 2640]
ch1 : [2490, 2483, 2472, 2467, 2474, 2481, 2472, 2478, 2487, 2494]
ch2 : [1500, 1500, 1515, 1512, 1515, 1511, 1507, 1506, 1502, 1488]
ch3 : [2766, 2761, 2764, 2761, 2761, 2759, 2759, 2762, 2764, 2763]
ch0 : [2451, 2600, 2631, 2648, 2615, 2593, 2635, 2643, 2474, 2567]
ch1 : [2476, 2472, 2474, 2479, 2480, 2485, 2480, 2492, 2497, 2478]
ch2 : [1512, 1513, 1516, 1511, 1503, 1500, 1506, 1490, 1494, 1515]
ch3 : [2764, 2770, 2765, 2766, 2757, 2758, 2764, 2768, 2767, 2768]
ch0 : [2627, 2631, 2633, 2612, 2608, 2644, 2610, 2427, 2594, 2631]
ch1 : [2478, 2474, 2479, 2483, 2471, 2489, 2494, 2484, 2485, 2479]
ch2 : [1514, 1510, 1507, 1506, 1505, 1498, 1486, 1513, 1510, 1509]
ch3 : [2768, 2768, 2766, 2766, 2765, 2770, 2764, 2768, 2770, 2772]
ch0 : [2640, 2638, 2606, 2593, 2645, 2527, 2569, 2623, 2633, 2636]
ch1 : [2475, 2484, 2487, 2485, 2500, 2499, 2480, 2479, 2481, 2471]
ch2 : [1501, 1503, 1504, 1504, 1496, 1490, 1506, 1508, 1493, 1506]
ch3 : [2772, 2769, 2761, 2771, 2772, 2776, 2772, 2774, 2771, 2770]
ch0 : [2612, 2593, 2645, 2641, 2416, 2590, 2633, 2643, 2639, 2595]
ch1 : [2484, 2486, 2488, 2500, 2479, 2476, 2475, 2478, 2481, 2467]
ch2 : [1502, 1513, 1498, 1490, 1502, 1514, 1510, 1509, 1507, 1511]
ch3 : [2772, 2773, 2771, 2774, 2772, 2776, 2779, 2774, 2767, 2772]
ch0 : [2589, 2649, 2555, 2569, 2625, 2616, 2639, 2611, 2610, 2644]
ch1 : [2483, 2483, 2493, 2471, 2473, 2475, 2477, 2474, 2478, 2484]
ch2 : [1505, 1494, 1499, 1514, 1510, 1508, 1509, 1511, 1508, 1500]
ch3 : [2771, 2773, 2775, 2775, 2777, 2777, 2785, 2774, 2773, 2777]
ch0 : [2627, 2395, 2578, 2634, 2634, 2633, 2595, 2586, 2635, 2582]
ch1 : [2505, 2479, 2468, 2470, 2471, 2476, 2476, 2470, 2479, 2491]
ch2 : [1489, 1504, 1511, 1514, 1510, 1508, 1503, 1506, 1492, 1493]
ch3 : [2773, 2776, 2776, 2781, 2782, 2773, 2773, 2773, 2778, 2778]
ch0 : [2545, 2620, 2627, 2632, 2613, 2608, 2633, 2639, 2380, 2561]
ch1 : [2467, 2471, 2463, 2467, 2476, 2469, 2479, 2488, 2475, 2468]
ch2 : [1503, 1510, 1509, 1507, 1509, 1505, 1501, 1488, 1500, 1515]
ch3 : [2782, 2777, 2775, 2778, 2779, 2781, 2784, 2781, 2779, 2782]
ch0 : [2632, 2631, 2634, 2613, 2594, 2643, 2639, 2541, 2627, 2610]
ch1 : [2466, 2469, 2479, 2474, 2465, 2482, 2491, 2474, 2470, 2472]
ch2 : [1510, 1510, 1502, 1508, 1503, 1490, 1488, 1506, 1511, 1508]
ch3 : [2783, 2780, 2776, 2776, 2780, 2778, 2783, 2783, 2781, 2781]
ch0 : [2630, 2615, 2616, 2644, 2646, 2362, 2571, 2628, 2631, 2629]
ch1 : [2478, 2479, 2484, 2476, 2496, 2483, 2485, 2469, 2474, 2480]
ch2 : [1501, 1504, 1505, 1503, 1489, 1500, 1510, 1511, 1508, 1503]
ch3 : [2789, 2784, 2780, 2771, 2779, 2785, 2776, 2785, 2785, 2780]
ch0 : [2600, 2589, 2642, 2635, 2532, 2616, 2626, 2618, 2618, 2615]
ch1 : [2480, 2477, 2493, 2491, 2475, 2476, 2470, 2476, 2475, 2481]
ch2 : [1508, 1513, 1489, 1488, 1505, 1508, 1505, 1503, 1504, 1505]
ch3 : [2781, 2783, 2781, 2788, 2775, 2778, 2780, 2768, 2782, 2784]
ch0 : [2641, 2637, 2359, 2574, 2611, 2628, 2638, 2589, 2586, 2640]
ch1 : [2477, 2490, 2489, 2477, 2475, 2479, 2483, 2471, 2481, 2494]
ch2 : [1498, 1478, 1499, 1510, 1504, 1505, 1504, 1508, 1489, 1496]
ch3 : [2783, 2780, 2781, 2784, 2784, 2788, 2784, 2779, 2783, 2785]
ch0 : [2642, 2522, 2606, 2623, 2632, 2624, 2590, 2639, 2633, 2320]
ch1 : [2493, 2489, 2479, 2480, 2478, 2484, 2465, 2481, 2500, 2492]
ch2 : [1490, 1505, 1505, 1506, 1505, 1519, 1506, 1500, 1482, 1496]
ch3 : [2787, 2788, 2784, 2789, 2786, 2781, 2783, 2789, 2788, 2783]
ch0 : [2558, 2615, 2633, 2639, 2593, 2598, 2641, 2620, 2514, 2615]
ch1 : [2476, 2469, 2476, 2484, 2487, 2479, 2491, 2498, 2483, 2480]
ch2 : [1494, 1508, 1506, 1504, 1507, 1504, 1489, 1490, 1501, 1511]
ch3 : [2787, 2796, 2777, 2785, 2781, 2783, 2783, 2804, 2792, 2789]
ch0 : [2604, 2629, 2641, 2590, 2639, 2640, 2298, 2545, 2623, 2613]
ch1 : [2480, 2483, 2492, 2485, 2492, 2501, 2497, 2480, 2489, 2483]
ch2 : [1507, 1504, 1505, 1504, 1508, 1476, 1489, 1510, 1509, 1508]
ch3 : [2787, 2787, 2789, 2790, 2793, 2786, 2787, 2782, 2792, 2792]
ch0 : [2647, 2593, 2597, 2645, 2639, 2500, 2612, 2623, 2632, 2619]
ch1 : [2490, 2494, 2490, 2496, 2505, 2491, 2484, 2486, 2489, 2492]
ch2 : [1505, 1502, 1508, 1497, 1488, 1502, 1512, 1502, 1505, 1506]
ch3 : [2790, 2786, 2783, 2787, 2791, 2805, 2792, 2788, 2783, 2787]
ch0 : [2577, 2596, 2637, 2307, 2541, 2607, 2630, 2635, 2607, 2592]
ch1 : [2493, 2493, 2503, 2508, 2485, 2488, 2486, 2491, 2490, 2491]
ch2 : [1507, 1505, 1489, 1488, 1509, 1513, 1508, 1503, 1505, 1503]
ch3 : [2788, 2792, 2792, 2790, 2792, 2797, 2790, 2791, 2788, 2788]
ch0 : [2641, 2630, 2479, 2609, 2618, 2630, 2628, 2589, 2563, 2648]
ch1 : [2496, 2505, 2497, 2490, 2485, 2492, 2492, 2490, 2493, 2505]
ch2 : [1499, 1492, 1506, 1508, 1508, 1512, 1510, 1509, 1507, 1484]
ch3 : [2793, 2799, 2796, 2793, 2793, 2792, 2791, 2790, 2791, 2790]
ch0 : [2305, 2539, 2620, 2627, 2631, 2593, 2617, 2648, 2639, 2474]
ch1 : [2513, 2487, 2484, 2486, 2493, 2496, 2490, 2499, 2508, 2494]
ch2 : [1492, 1511, 1509, 1519, 1487, 1507, 1506, 1495, 1490, 1503]
ch3 : [2791, 2796, 2797, 2798, 2793, 2791, 2794, 2787, 2797, 2799]
ch0 : [2600, 2615, 2631, 2635, 2577, 2584, 2641, 2378, 2521, 2617]
ch1 : [2492, 2486, 2481, 2493, 2491, 2494, 2509, 2510, 2492, 2489]
ch2 : [1511, 1508, 1509, 1507, 1508, 1513, 1490, 1495, 1511, 1512]
ch3 : [2795, 2800, 2794, 2793, 2793, 2794, 2800, 2791, 2800, 2799]
ch0 : [2620, 2631, 2589, 2599, 2639, 2638, 2450, 2607, 2625, 2638]
ch1 : [2487, 2510, 2503, 2501, 2509, 2512, 2508, 2499, 2498, 2500]
ch2 : [1510, 1505, 1506, 1504, 1497, 1492, 1501, 1510, 1507, 1503]
ch3 : [2797, 2796, 2795, 2795, 2796, 2796, 2809, 2796, 2796, 2796]
ch0 : [2633, 2595, 2562, 2644, 2420, 2533, 2598, 2623, 2635, 2601]
ch1 : [2515, 2505, 2507, 2520, 2518, 2502, 2496, 2500, 2506, 2512]
ch2 : [1506, 1510, 1511, 1482, 1490, 1515, 1508, 1512, 1506, 1503]
ch3 : [2797, 2799, 2799, 2798, 2797, 2800, 2803, 2801, 2795, 2799]
ch0 : [2642, 2501, 2488, 2609, 2634, 2627, 2608, 2608, 2642, 2641]
ch1 : [2529, 2532, 2504, 2508, 2508, 2511, 2512, 2512, 2515, 2525]
ch2 : [1493, 1492, 1512, 1511, 1511, 1508, 1503, 1509, 1514, 1493]
ch3 : [2795, 2798, 2801, 2808, 2793, 2797, 2795, 2796, 2799, 2800]
ch0 : [2418, 2601, 2623, 2632, 2633, 2600, 2569, 2641, 2562, 2494]
ch1 : [2509, 2506, 2512, 2506, 2509, 2509, 2511, 2524, 2526, 2505]
ch2 : [1495, 1506, 1512, 1507, 1506, 1503, 1506, 1491, 1497, 1507]
ch3 : [2805, 2801, 2799, 2802, 2796, 2794, 2800, 2798, 2810, 2803]
ch0 : [2604, 2627, 2634, 2607, 2607, 2638, 2622, 2428, 2594, 2628]
ch1 : [2506, 2504, 2512, 2510, 2510, 2514, 2524, 2507, 2500, 2497]
ch2 : [1512, 1507, 1503, 1504, 1503, 1494, 1489, 1498, 1510, 1506]
ch3 : [2806, 2808, 2802, 2797, 2804, 2798, 2798, 2807, 2797, 2797]
ch0 : [2626, 2626, 2597, 2560, 2640, 2610, 2498, 2594, 2626, 2636]
ch1 : [2501, 2506, 2504, 2509, 2519, 2519, 2501, 2494, 2491, 2503]
ch2 : [1510, 1504, 1505, 1504, 1500, 1486, 1508, 1514, 1506, 1509]
ch3 : [2803, 2802, 2801, 2804, 2797, 2804, 2801, 2806, 2803, 2800]
ch0 : [2617, 2613, 2639, 2633, 2429, 2589, 2623, 2608, 2629, 2596]
ch1 : [2506, 2496, 2502, 2512, 2503, 2496, 2492, 2494, 2500, 2501]
ch2 : [1504, 1505, 1499, 1489, 1503, 1493, 1513, 1508, 1506, 1505]
ch3 : [2799, 2800, 2801, 2800, 2813, 2803, 2790, 2805, 2801, 2800]
ch0 : [2559, 2637, 2600, 2492, 2611, 2625, 2633, 2624, 2600, 2641]
ch1 : [2497, 2510, 2518, 2491, 2486, 2486, 2490, 2499, 2499, 2495]
ch2 : [1503, 1489, 1490, 1507, 1512, 1504, 1512, 1503, 1503, 1497]
ch3 : [2803, 2805, 2797, 2802, 2804, 2802, 2801, 2798, 2802, 2804]
ch0 : [2638, 2418, 2580, 2624, 2606, 2631, 2598, 2569, 2640, 2571]
ch1 : [2503, 2497, 2489, 2483, 2486, 2493, 2499, 2496, 2500, 2511]
ch2 : [1492, 1487, 1512, 1516, 1506, 1506, 1503, 1505, 1487, 1487]
ch3 : [2803, 2808, 2803, 2802, 2800, 2804, 2804, 2803, 2802, 2802]
ch0 : [2473, 2601, 2626, 2631, 2611, 2607, 2641, 2636, 2385, 2581]
ch1 : [2490, 2485, 2484, 2487, 2496, 2496, 2495, 2507, 2507, 2493]
ch2 : [1508, 1505, 1510, 1512, 1503, 1504, 1508, 1496, 1495, 1508]
ch3 : [2805, 2802, 2810, 2807, 2803, 2800, 2801, 2810, 2817, 2805]
ch0 : [2615, 2610, 2629, 2592, 2574, 2639, 2635, 2456, 2584, 2628]
ch1 : [2490, 2495, 2495, 2499, 2498, 2507, 2515, 2500, 2490, 2491]
ch2 : [1508, 1510, 1501, 1504, 1515, 1492, 1489, 1509, 1511, 1509]
ch3 : [2806, 2808, 2800, 2809, 2803, 2808, 2791, 2807, 2811, 2811]
ch0 : [2636, 2610, 2601, 2640, 2641, 2380, 2581, 2616, 2617, 2629]
ch1 : [2494, 2502, 2495, 2497, 2508, 2506, 2493, 2493, 2495, 2497]
ch2 : [1507, 1507, 1504, 1510, 1494, 1492, 1509, 1509, 1507, 1506]
ch3 : [2808, 2802, 2803, 2805, 2804, 2808, 2808, 2806, 2805, 2804]
ch0 : [2593, 2564, 2640, 2612, 2443, 2591, 2626, 2631, 2618, 2579]
ch1 : [2502, 2498, 2507, 2510, 2498, 2488, 2488, 2492, 2500, 2498]
ch2 : [1511, 1507, 1494, 1489, 1505, 1514, 1506, 1506, 1503, 1511]
ch3 : [2806, 2804, 2804, 2803, 2802, 2806, 2807, 2806, 2804, 2798]
ch0 : [2635, 2643, 2382, 2567, 2614, 2611, 2628, 2606, 2588, 2638]
ch1 : [2493, 2495, 2512, 2491, 2491, 2493, 2494, 2498, 2500, 2509]
ch2 : [1509, 1495, 1496, 1513, 1511, 1508, 1513, 1508, 1508, 1497]
ch3 : [2802, 2808, 2807, 2809, 2815, 2807, 2806, 2809, 2807, 2808]
ch0 : [2641, 2424, 2594, 2618, 2631, 2646, 2584, 2596, 2627, 2461]
ch1 : [2513, 2497, 2492, 2494, 2495, 2498, 2501, 2497, 2512, 2507]
ch2 : [1489, 1505, 1515, 1514, 1507, 1505, 1509, 1508, 1499, 1494]
ch3 : [2807, 2803, 2808, 2814, 2809, 2807, 2799, 2810, 2810, 2815]
ch0 : [2574, 2617, 2615, 2628, 2605, 2586, 2638, 2615, 2420, 2583]
ch1 : [2494, 2489, 2498, 2490, 2505, 2506, 2508, 2516, 2500, 2495]
ch2 : [1512, 1507, 1509, 1506, 1508, 1510, 1498, 1488, 1503, 1513]
ch3 : [2817, 2812, 2809, 2813, 2818, 2812, 2808, 2803, 2811, 2812]
ch0 : [2623, 2634, 2627, 2593, 2590, 2640, 2544, 2551, 2625, 2606]
ch1 : [2491, 2496, 2501, 2504, 2501, 2516, 2508, 2496, 2510, 2496]
ch2 : [1509, 1508, 1504, 1507, 1507, 1495, 1501, 1509, 1511, 1506]
ch3 : [2810, 2812, 2808, 2808, 2809, 2810, 2815, 2812, 2808, 2812]
ch0 : [2629, 2589, 2605, 2639, 2647, 2406, 2571, 2623, 2631, 2631]
ch1 : [2501, 2498, 2504, 2509, 2522, 2503, 2495, 2496, 2501, 2508]
ch2 : [1508, 1507, 1509, 1501, 1491, 1508, 1513, 1513, 1509, 1502]
ch3 : [2813, 2809, 2807, 2809, 2806, 2813, 2809, 2815, 2807, 2809]
ch0 : [2598, 2592, 2641, 2573, 2541, 2629, 2627, 2629, 2611, 2628]
ch1 : [2503, 2501, 2517, 2519, 2500, 2498, 2501, 2504, 2506, 2507]
ch2 : [1503, 1508, 1498, 1495, 1512, 1511, 1506, 1522, 1510, 1508]
ch3 : [2811, 2812, 2810, 2825, 2816, 2806, 2822, 2810, 2810, 2812]
ch0 : [2641, 2644, 2385, 2580, 2616, 2617, 2635, 2600, 2581, 2639]
ch1 : [2503, 2520, 2506, 2494, 2495, 2504, 2505, 2502, 2508, 2516]
ch2 : [1501, 1490, 1515, 1518, 1511, 1510, 1501, 1506, 1506, 1500]
ch3 : [2808, 2810, 2812, 2814, 2813, 2814, 2810, 2815, 2796, 2810]
ch0 : [2620, 2539, 2626, 2625, 2625, 2633, 2609, 2640, 2635, 2362]
ch1 : [2520, 2501, 2498, 2499, 2499, 2506, 2506, 2506, 2522, 2512]
ch2 : [1493, 1505, 1508, 1511, 1512, 1505, 1508, 1506, 1491, 1500]
ch3 : [2809, 2810, 2811, 2813, 2811, 2807, 2813, 2815, 2812, 2812]
ch0 : [2570, 2631, 2623, 2632, 2603, 2583, 2635, 2635, 2522, 2630]
ch1 : [2492, 2493, 2501, 2505, 2502, 2497, 2510, 2510, 2496, 2495]
ch2 : [1513, 1516, 1504, 1509, 1505, 1508, 1499, 1493, 1506, 1517]
ch3 : [2815, 2815, 2823, 2810, 2807, 2809, 2814, 2815, 2810, 2811]
ch0 : [2633, 2588, 2588, 2639, 2631, 2522, 2627, 2624, 2628, 2624]
ch1 : [2497, 2500, 2500, 2504, 2515, 2496, 2486, 2493, 2500, 2499]
ch2 : [1509, 1510, 1507, 1496, 1494, 1510, 1512, 1513, 1510, 1507]
ch3 : [2810, 2813, 2812, 2817, 2813, 2818, 2813, 2825, 2807, 2806]
ch0 : [2599, 2636, 2639, 2321, 2583, 2614, 2626, 2643, 2598, 2581]
ch1 : [2496, 2495, 2511, 2507, 2491, 2488, 2487, 2500, 2499, 2495]
ch2 : [1507, 1502, 1493, 1499, 1514, 1516, 1510, 1506, 1506, 1505]
ch3 : [2816, 2810, 2809, 2807, 2815, 2818, 2814, 2811, 2809, 2811]
ch0 : [2642, 2606, 2532, 2615, 2624, 2632, 2619, 2603, 2640, 2632]
ch1 : [2518, 2515, 2495, 2495, 2490, 2497, 2498, 2499, 2508, 2516]
ch2 : [1494, 1493, 1502, 1513, 1508, 1510, 1509, 1509, 1507, 1484]
ch3 : [2814, 2820, 2816, 2818, 2816, 2812, 2814, 2815, 2811, 2815]
ch0 : [2302, 2556, 2625, 2629, 2631, 2600, 2598, 2631, 2635, 2505]
ch1 : [2507, 2488, 2494, 2493, 2502, 2495, 2485, 2509, 2511, 2501]
ch2 : [1496, 1509, 1511, 1507, 1506, 1505, 1511, 1495, 1486, 1507]
ch3 : [2813, 2813, 2817, 2815, 2815, 2811, 2812, 2814, 2817, 2805]
ch0 : [2620, 2624, 2635, 2632, 2595, 2637, 2643, 2288, 2551, 2615]
ch1 : [2502, 2495, 2479, 2499, 2498, 2481, 2515, 2508, 2506, 2493]
ch2 : [1513, 1508, 1495, 1508, 1507, 1503, 1492, 1499, 1512, 1511]
ch3 : [2815, 2814, 2809, 2815, 2814, 2820, 2812, 2815, 2814, 2820]
ch0 : [2621, 2631, 2603, 2597, 2640, 2639, 2509, 2614, 2619, 2634]
ch1 : [2491, 2495, 2501, 2500, 2505, 2503, 2498, 2494, 2490, 2490]
ch2 : [1509, 1505, 1503, 1502, 1495, 1494, 1510, 1511, 1515, 1508]
ch3 : [2818, 2818, 2814, 2815, 2809, 2814, 2822, 2814, 2818, 2815]
ch0 : [2630, 2586, 2582, 2641, 2316, 2549, 2615, 2623, 2634, 2603]
ch1 : [2499, 2497, 2495, 2499, 2515, 2489, 2490, 2494, 2501, 2497]
ch2 : [1508, 1511, 1514, 1493, 1510, 1512, 1507, 1511, 1508, 1509]
ch3 : [2814, 2815, 2817, 2812, 2814, 2818, 2824, 2815, 2813, 2812]
ch0 : [2616, 2644, 2633, 2475, 2620, 2621, 2633, 2635, 2577, 2555]
ch1 : [2496, 2508, 2510, 2492, 2493, 2501, 2495, 2495, 2502, 2494]
ch2 : [1508, 1500, 1494, 1510, 1513, 1511, 1512, 1505, 1508, 1525]
ch3 : [2816, 2815, 2817, 2819, 2820, 2815, 2806, 2810, 2816, 2817]
ch0 : [2638, 2374, 2545, 2616, 2625, 2629, 2591, 2596, 2641, 2642]
ch1 : [2514, 2519, 2496, 2491, 2496, 2498, 2500, 2498, 2508, 2513]
ch2 : [1488, 1478, 1512, 1514, 1513, 1506, 1512, 1508, 1499, 1493]
ch3 : [2816, 2815, 2818, 2821, 2819, 2813, 2811, 2813, 2813, 2817]
ch0 : [2474, 2601, 2629, 2635, 2632, 2586, 2568, 2644, 2436, 2525]
ch1 : [2504, 2491, 2492, 2488, 2501, 2515, 2498, 2517, 2517, 2500]
ch2 : [1503, 1513, 1510, 1512, 1508, 1512, 1511, 1494, 1492, 1517]
ch3 : [2820, 2820, 2811, 2814, 2815, 2812, 2815, 2812, 2813, 2817]
ch0 : [2631, 2634, 2596, 2575, 2640, 2525, 2523, 2611, 2624, 2642]
ch1 : [2499, 2501, 2504, 2508, 2519, 2516, 2498, 2495, 2499, 2502]
ch2 : [1512, 1511, 1513, 1510, 1496, 1496, 1510, 1507, 1513, 1512]
ch3 : [2814, 2810, 2811, 2808, 2797, 2810, 2814, 2812, 2809, 2806]
ch0 : [2601, 2618, 2624, 2637, 2464, 2592, 2617, 2629, 2629, 2599]
ch1 : [2506, 2503, 2506, 2515, 2509, 2498, 2500, 2499, 2505, 2504]
ch2 : [1510, 1507, 1509, 1495, 1507, 1513, 1513, 1509, 1511, 1508]
ch3 : [2807, 2803, 2794, 2802, 2813, 2807, 2801, 2801, 2805, 2805]
ch0 : [2564, 2642, 2520, 2508, 2608, 2628, 2635, 2598, 2605, 2637]
ch1 : [2510, 2515, 2518, 2498, 2498, 2498, 2503, 2511, 2501, 2509]
ch2 : [1511, 1499, 1495, 1514, 1514, 1511, 1516, 1503, 1510, 1488]
ch3 : [2816, 2807, 2805, 2804, 2806, 2806, 2805, 2793, 2796, 2798]
ch0 : [2643, 2434, 2597, 2639, 2622, 2632, 2614, 2558, 2640, 2644]
ch1 : [2525, 2513, 2502, 2500, 2501, 2505, 2506, 2507, 2526, 2524]
ch2 : [1497, 1503, 1509, 1511, 1505, 1508, 1509, 1508, 1493, 1490]
ch3 : [2805, 2811, 2805, 2800, 2792, 2793, 2794, 2794, 2791, 2803]
ch0 : [2498, 2606, 2631, 2634, 2616, 2609, 2640, 2632, 2412, 2583]
ch1 : [2500, 2498, 2497, 2504, 2516, 2505, 2508, 2522, 2515, 2502]
ch2 : [1508, 1508, 1510, 1504, 1504, 1505, 1505, 1490, 1501, 1513]
ch3 : [2810, 2804, 2806, 2796, 2792, 2794, 2796, 2797, 2802, 2803]
ch0 : [2623, 2622, 2631, 2599, 2561, 2643, 2622, 2491, 2611, 2626]
ch1 : [2502, 2503, 2507, 2496, 2515, 2515, 2524, 2503, 2499, 2503]
ch2 : [1512, 1507, 1506, 1508, 1502, 1488, 1488, 1509, 1511, 1509]
ch3 : [2814, 2807, 2813, 2810, 2804, 2800, 2804, 2811, 2808, 2799]
ch0 : [2634, 2624, 2608, 2644, 2648, 2411, 2589, 2621, 2616, 2629]
ch1 : [2503, 2510, 2508, 2509, 2523, 2517, 2508, 2502, 2504, 2510]
ch2 : [1509, 1506, 1507, 1508, 1493, 1499, 1511, 1509, 1506, 1519]
ch3 : [2803, 2801, 2817, 2816, 2810, 2812, 2815, 2809, 2794, 2787]
ch0 : [2600, 2575, 2639, 2587, 2470, 2591, 2626, 2637, 2614, 2591]
ch1 : [2509, 2504, 2513, 2528, 2505, 2494, 2504, 2506, 2509, 2508]
ch2 : [1518, 1511, 1497, 1488, 1501, 1511, 1510, 1506, 1499, 1509]
ch3 : [2787, 2801, 2808, 2809, 2802, 2803, 2802, 2799, 2792, 2791]
ch0 : [2642, 2644, 2393, 2563, 2624, 2621, 2634, 2602, 2581, 2640]
ch1 : [2504, 2518, 2517, 2502, 2503, 2504, 2509, 2511, 2509, 2520]
ch2 : [1497, 1489, 1494, 1508, 1491, 1506, 1507, 1505, 1504, 1487]
ch3 : [2797, 2804, 2804, 2798, 2794, 2796, 2792, 2796, 2795, 2794]
ch0 : [2635, 2441, 2604, 2625, 2634, 2618, 2607, 2631, 2642, 2384]
ch1 : [2519, 2514, 2498, 2499, 2503, 2506, 2509, 2502, 2521, 2516]
ch2 : [1480, 1504, 1515, 1510, 1509, 1502, 1505, 1507, 1491, 1498]
ch3 : [2789, 2789, 2788, 2788, 2778, 2766, 2780, 2786, 2776, 2783]
ch0 : [2628, 2636, 2634, 2597, 2619, 2644, 2428, 2554, 2629, 2614]
ch1 : [2496, 2496, 2503, 2500, 2499, 2514, 2521, 2496, 2493, 2494]
ch2 : [1525, 1511, 1491, 1506, 1512, 1480, 1497, 1512, 1512, 1507]
ch3 : [2760, 2756, 2748, 2754, 2758, 2760, 2761, 2756, 2743, 2742]
ch0 : [2629, 2611, 2588, 2642, 2616, 2425, 2585, 2621, 2630, 2617]
ch1 : [2495, 2496, 2498, 2504, 2507, 2500, 2488, 2489, 2495, 2500]
ch2 : [1510, 1495, 1509, 1501, 1489, 1511, 1515, 1514, 1511, 1510]
ch3 : [2746, 2745, 2744, 2747, 2741, 2740, 2738, 2734, 2725, 2729]
ch0 : [2597, 2602, 2643, 2490, 2564, 2626, 2615, 2607, 2604, 2593]
ch1 : [2500, 2493, 2510, 2509, 2497, 2489, 2492, 2491, 2498, 2501]
ch2 : [1527, 1512, 1496, 1503, 1516, 1519, 1515, 1515, 1515, 1514]
ch3 : [2739, 2736, 2732, 2732, 2729, 2727, 2727, 2732, 2722, 2725]
ch0 : [2643, 2636, 2400, 2582, 2610, 2632, 2631, 2574, 2599, 2627]
ch1 : [2506, 2516, 2493, 2489, 2491, 2496, 2501, 2505, 2497, 2511]
ch2 : [1502, 1496, 1517, 1521, 1521, 1520, 1515, 1513, 1514, 1496]
ch3 : [2716, 2715, 2721, 2729, 2724, 2714, 2706, 2708, 2707, 2704]
ch0 : [2538, 2564, 2613, 2616, 2629, 2604, 2601, 2636, 2634, 2407]
ch1 : [2510, 2498, 2495, 2496, 2503, 2508, 2505, 2511, 2520, 2510]
ch2 : [1498, 1514, 1523, 1522, 1518, 1516, 1518, 1510, 1501, 1515]
ch3 : [2714, 2716, 2712, 2710, 2685, 2700, 2703, 2697, 2695, 2705]
ch0 : [2581, 2620, 2635, 2631, 2584, 2600, 2649, 2584, 2545, 2621]
ch1 : [2497, 2483, 2502, 2506, 2515, 2511, 2521, 2535, 2511, 2509]
ch2 : [1531, 1523, 1519, 1523, 1516, 1518, 1511, 1505, 1521, 1524]
ch3 : [2704, 2699, 2692, 2690, 2690, 2692, 2697, 2705, 2701, 2696]
ch0 : [2610, 2632, 2613, 2616, 2641, 2641, 2388, 2578, 2614, 2633]
ch1 : [2513, 2516, 2525, 2519, 2529, 2537, 2528, 2520, 2521, 2525]
ch2 : [1525, 1519, 1524, 1518, 1515, 1510, 1520, 1528, 1527, 1526]
ch3 : [2691, 2687, 2687, 2694, 2692, 2687, 2695, 2700, 2696, 2686]
ch0 : [2635, 2606, 2602, 2644, 2611, 2538, 2622, 2618, 2631, 2618]
ch1 : [2529, 2530, 2526, 2547, 2544, 2527, 2530, 2526, 2537, 2538]
ch2 : [1523, 1524, 1525, 1511, 1514, 1523, 1537, 1528, 1527, 1531]
ch3 : [2684, 2688, 2686, 2693, 2696, 2694, 2692, 2686, 2679, 2684]
ch0 : [2616, 2637, 2638, 2368, 2575, 2620, 2631, 2636, 2603, 2581]
ch1 : [2537, 2542, 2557, 2546, 2532, 2535, 2540, 2549, 2554, 2544]
ch2 : [1526, 1526, 1512, 1519, 1535, 1526, 1528, 1525, 1528, 1525]
ch3 : [2688, 2687, 2692, 2696, 2697, 2700, 2691, 2685, 2686, 2692]
ch0 : [2646, 2637, 2521, 2613, 2623, 2619, 2632, 2606, 2642, 2640]
ch1 : [2555, 2560, 2544, 2538, 2531, 2548, 2553, 2550, 2549, 2566]
ch2 : [1515, 1513, 1526, 1531, 1531, 1526, 1527, 1530, 1526, 1513]
ch3 : [2689, 2695, 2697, 2695, 2694, 2687, 2687, 2695, 2689, 2687]
ch0 : [2333, 2573, 2620, 2630, 2629, 2603, 2585, 2632, 2639, 2519]
ch1 : [2555, 2543, 2542, 2548, 2557, 2550, 2543, 2561, 2562, 2547]
ch2 : [1517, 1533, 1533, 1527, 1513, 1524, 1526, 1517, 1514, 1522]
ch3 : [2691, 2692, 2682, 2685, 2680, 2689, 2682, 2681, 2674, 2676]
ch0 : [2607, 2625, 2634, 2626, 2600, 2634, 2643, 2353, 2570, 2623]
ch1 : [2543, 2556, 2545, 2545, 2547, 2545, 2561, 2556, 2537, 2534]
ch2 : [1529, 1534, 1529, 1523, 1526, 1529, 1507, 1518, 1530, 1531]
ch3 : [2678, 2680, 2673, 2681, 2681, 2680, 2677, 2679, 2687, 2686]
ch0 : [2628, 2632, 2596, 2588, 2642, 2640, 2520, 2613, 2597, 2632]
ch1 : [2537, 2543, 2543, 2538, 2551, 2549, 2539, 2530, 2526, 2533]
ch2 : [1528, 1523, 1520, 1524, 1517, 1511, 1528, 1532, 1526, 1531]
ch3 : [2688, 2677, 2686, 2692, 2695, 2696, 2699, 2704, 2705, 2693]
ch0 : [2627, 2591, 2633, 2641, 2308, 2546, 2618, 2619, 2634, 2605]
ch1 : [2529, 2531, 2533, 2548, 2539, 2523, 2516, 2520, 2523, 2530]
ch2 : [1540, 1527, 1525, 1511, 1504, 1530, 1527, 1527, 1525, 1523]
ch3 : [2694, 2689, 2690, 2694, 2693, 2686, 2683, 2679, 2686, 2698]
ch0 : [2571, 2638, 2634, 2507, 2609, 2611, 2631, 2622, 2587, 2643]
ch1 : [2525, 2527, 2534, 2523, 2513, 2513, 2511, 2516, 2520, 2512]
ch2 : [1525, 1512, 1512, 1524, 1528, 1527, 1527, 1529, 1523, 1519]
ch3 : [2693, 2686, 2688, 2688, 2685, 2687, 2690, 2691, 2693, 2700]
ch0 : [2645, 2287, 2539, 2620, 2622, 2640, 2598, 2591, 2639, 2624]
ch1 : [2529, 2535, 2506, 2506, 2509, 2512, 2515, 2518, 2519, 2519]
ch2 : [1511, 1512, 1528, 1528, 1525, 1523, 1521, 1523, 1511, 1508]
ch3 : [2697, 2683, 2701, 2699, 2701, 2694, 2700, 2701, 2703, 2702]
ch0 : [2508, 2612, 2627, 2628, 2629, 2565, 2562, 2630, 2303, 2547]
ch1 : [2515, 2507, 2510, 2513, 2511, 2510, 2507, 2524, 2523, 2503]
ch2 : [1521, 1528, 1527, 1527, 1526, 1522, 1525, 1527, 1512, 1529]
ch3 : [2703, 2715, 2700, 2701, 2697, 2706, 2698, 2698, 2701, 2705]
ch0 : [2611, 2626, 2645, 2592, 2606, 2644, 2598, 2493, 2613, 2626]
ch1 : [2503, 2503, 2506, 2513, 2503, 2513, 2518, 2509, 2499, 2494]
ch2 : [1535, 1525, 1529, 1523, 1528, 1518, 1511, 1521, 1531, 1530]
ch3 : [2703, 2698, 2700, 2695, 2699, 2701, 2705, 2703, 2704, 2707]
ch0 : [2639, 2629, 2574, 2573, 2634, 2317, 2547, 2620, 2626, 2633]
ch1 : [2496, 2500, 2504, 2500, 2514, 2518, 2498, 2493, 2495, 2503]
ch2 : [1534, 1529, 1530, 1533, 1516, 1515, 1535, 1531, 1535, 1528]
ch3 : [2703, 2704, 2702, 2705, 2705, 2713, 2708, 2712, 2710, 2712]
ch0 : [2610, 2624, 2641, 2640, 2472, 2600, 2617, 2630, 2626, 2592]
ch1 : [2505, 2500, 2506, 2516, 2500, 2489, 2493, 2502, 2497, 2501]
ch2 : [1530, 1524, 1526, 1515, 1527, 1534, 1537, 1532, 1532, 1518]
ch3 : [2707, 2707, 2711, 2710, 2716, 2712, 2713, 2713, 2715, 2712]
ch0 : [2639, 2463, 2599, 2614, 2632, 2635, 2596, 2568, 2632, 2533]
ch1 : [2512, 2502, 2495, 2494, 2497, 2496, 2493, 2491, 2513, 2509]
ch2 : [1515, 1527, 1529, 1533, 1531, 1532, 1526, 1528, 1517, 1514]
ch3 : [2728, 2723, 2726, 2726, 2728, 2724, 2726, 2727, 2729, 2729]
ch0 : [2511, 2611, 2624, 2625, 2606, 2603, 2638, 2642, 2459, 2592]
ch1 : [2492, 2490, 2487, 2497, 2501, 2496, 2500, 2506, 2500, 2491]
ch2 : [1532, 1534, 1534, 1528, 1527, 1531, 1518, 1517, 1525, 1531]
ch3 : [2737, 2736, 2738, 2736, 2731, 2732, 2730, 2738, 2739, 2739]
ch0 : [2623, 2630, 2626, 2588, 2555, 2632, 2564, 2515, 2596, 2622]
ch1 : [2496, 2498, 2496, 2498, 2501, 2507, 2516, 2493, 2490, 2491]
ch2 : [1530, 1533, 1528, 1532, 1528, 1513, 1510, 1530, 1519, 1530]
ch3 : [2739, 2719, 2740, 2739, 2739, 2737, 2744, 2744, 2739, 2753]
ch0 : [2632, 2607, 2623, 2639, 2634, 2426, 2584, 2621, 2626, 2626]
ch1 : [2500, 2505, 2500, 2499, 2516, 2508, 2495, 2496, 2496, 2506]
ch2 : [1530, 1511, 1543, 1520, 1508, 1522, 1542, 1527, 1526, 1523]
ch3 : [2739, 2740, 2742, 2745, 2747, 2751, 2749, 2745, 2732, 2748]
ch0 : [2588, 2557, 2643, 2639, 2499, 2606, 2626, 2631, 2589, 2610]
ch1 : [2503, 2504, 2514, 2522, 2495, 2487, 2497, 2506, 2506, 2503]
ch2 : [1528, 1539, 1496, 1507, 1522, 1511, 1525, 1522, 1520, 1527]
ch3 : [2743, 2747, 2747, 2743, 2750, 2751, 2752, 2750, 2747, 2746]
ch0 : [2639, 2637, 2425, 2583, 2610, 2610, 2624, 2597, 2561, 2636]
ch1 : [2504, 2520, 2507, 2491, 2497, 2499, 2505, 2505, 2506, 2520]
ch2 : [1520, 1510, 1516, 1528, 1526, 1523, 1522, 1520, 1521, 1513]
ch3 : [2745, 2753, 2758, 2754, 2753, 2751, 2755, 2754, 2756, 2756]
ch0 : [2618, 2482, 2597, 2623, 2632, 2615, 2607, 2639, 2637, 2411]
ch1 : [2515, 2495, 2493, 2496, 2495, 2503, 2499, 2502, 2513, 2504]
ch2 : [1506, 1523, 1526, 1524, 1526, 1524, 1518, 1517, 1506, 1516]
ch3 : [2752, 2758, 2761, 2762, 2755, 2751, 2755, 2757, 2760, 2757]
ch0 : [2604, 2616, 2611, 2633, 2595, 2563, 2637, 2576, 2485, 2595]
ch1 : [2505, 2493, 2496, 2493, 2492, 2503, 2505, 2524, 2491, 2487]
