device found = /dev/cu.usbmodem14433
ch0 : [2548, 2617, 2625, 2632, 2601, 2603, 2640, 2631, 2611, 2623]
ch1 : [2981, 2982, 2970, 2991, 3003, 2988, 2998, 3006, 2979, 2981]
ch2 : [1519, 1522, 1511, 1515, 1517, 1513, 1509, 1503, 1521, 1516]
ch3 : [2927, 2930, 2913, 2924, 2926, 2924, 2923, 2925, 2927, 2926]
ch0 : [2630, 2594, 2603, 2636, 2614, 2493, 2612, 2617, 2632, 2628]
ch1 : [2992, 2993, 2988, 2996, 3006, 2990, 2983, 2984, 2984, 2989]
ch2 : [1510, 1513, 1517, 1505, 1504, 1513, 1520, 1517, 1519, 1515]
ch3 : [2927, 2924, 2925, 2924, 2923, 2928, 2927, 2924, 2926, 2925]
ch0 : [2573, 2563, 2637, 2363, 2540, 2602, 2622, 2631, 2599, 2602]
ch1 : [2987, 2983, 3005, 3007, 2983, 2978, 2983, 2989, 2990, 2990]
ch2 : [1526, 1517, 1498, 1502, 1519, 1519, 1510, 1515, 1511, 1514]
ch3 : [2928, 2927, 2920, 2922, 2928, 2929, 2940, 2930, 2923, 2924]
ch0 : [2641, 2630, 2475, 2598, 2612, 2619, 2630, 2598, 2551, 2634]
ch1 : [3000, 3006, 2996, 2978, 2987, 2986, 2993, 2993, 2991, 3010]
ch2 : [1507, 1510, 1512, 1532, 1518, 1513, 1515, 1513, 1519, 1500]
ch3 : [2924, 2924, 2928, 2932, 2925, 2929, 2925, 2926, 2927, 2936]
ch0 : [2445, 2525, 2605, 2625, 2632, 2602, 2609, 2636, 2640, 2475]
ch1 : [3010, 2989, 2979, 2979, 2993, 2994, 2994, 2994, 3007, 3003]
ch2 : [1503, 1521, 1519, 1514, 1516, 1514, 1517, 1505, 1501, 1514]
ch3 : [2923, 2927, 2931, 2927, 2936, 2925, 2927, 2918, 2928, 2926]
ch0 : [2591, 2625, 2625, 2627, 2577, 2578, 2640, 2522, 2512, 2603]
ch1 : [2978, 2987, 2987, 2991, 2997, 2992, 3006, 3012, 2987, 2982]
ch2 : [1516, 1517, 1513, 1517, 1512, 1514, 1499, 1500, 1517, 1511]
ch3 : [2927, 2929, 2921, 2925, 2938, 2927, 2915, 2923, 2922, 2927]
ch0 : [2620, 2627, 2598, 2619, 2634, 2636, 2450, 2598, 2624, 2635]
ch1 : [2985, 2992, 2997, 2993, 3001, 3011, 2998, 2979, 2974, 2979]
ch2 : [1528, 1518, 1513, 1516, 1508, 1502, 1513, 1516, 1524, 1514]
ch3 : [2937, 2934, 2924, 2924, 2929, 2922, 2919, 2933, 2928, 2934]
ch0 : [2625, 2596, 2570, 2642, 2603, 2509, 2599, 2625, 2631, 2620]
ch1 : [2992, 2992, 2991, 3003, 3014, 2989, 2985, 2985, 2992, 2994]
ch2 : [1519, 1507, 1514, 1504, 1502, 1514, 1518, 1515, 1516, 1508]
ch3 : [2927, 2929, 2928, 2924, 2923, 2927, 2928, 2927, 2922, 2922]
ch0 : [2605, 2641, 2634, 2456, 2586, 2619, 2616, 2632, 2598, 2571]
ch1 : [2988, 2994, 3007, 2997, 2983, 2990, 2986, 2995, 2996, 2995]
ch2 : [1510, 1509, 1498, 1507, 1512, 1518, 1516, 1514, 1516, 1514]
ch3 : [2931, 2924, 2924, 2926, 2930, 2928, 2936, 2923, 2932, 2924]
ch0 : [2639, 2629, 2498, 2607, 2621, 2634, 2603, 2610, 2640, 2635]
ch1 : [3005, 3013, 2987, 2980, 2988, 2995, 2991, 2987, 2996, 3009]
ch2 : [1502, 1496, 1516, 1515, 1516, 1514, 1513, 1512, 1511, 1486]
ch3 : [2924, 2924, 2925, 2928, 2929, 2921, 2925, 2925, 2924, 2924]
ch0 : [2444, 2586, 2612, 2607, 2622, 2592, 2562, 2638, 2550, 2474]
ch1 : [3003, 2991, 2987, 2984, 2992, 2996, 2995, 3007, 3011, 2991]
ch2 : [1507, 1516, 1516, 1511, 1525, 1518, 1513, 1502, 1499, 1515]
ch3 : [2925, 2923, 2926, 2926, 2924, 2926, 2924, 2925, 2922, 2934]
ch0 : [2594, 2621, 2645, 2614, 2589, 2642, 2632, 2413, 2576, 2616]
ch1 : [2982, 2988, 2989, 2999, 2995, 2995, 3008, 2999, 2990, 2986]
ch2 : [1519, 1521, 1516, 1522, 1524, 1514, 1503, 1506, 1521, 1516]
ch3 : [2927, 2927, 2925, 2925, 2928, 2924, 2926, 2920, 2926, 2926]
ch0 : [2605, 2632, 2591, 2580, 2634, 2629, 2482, 2593, 2617, 2632]
ch1 : [2992, 2996, 2996, 2995, 3004, 3014, 2992, 2984, 2974, 2992]
ch2 : [1516, 1519, 1515, 1516, 1503, 1500, 1518, 1517, 1504, 1516]
ch3 : [2928, 2926, 2925, 2927, 2924, 2923, 2926, 2925, 2938, 2928]
ch0 : [2615, 2600, 2632, 2632, 2417, 2570, 2620, 2607, 2632, 2603]
ch1 : [2981, 2996, 2991, 3014, 3004, 2991, 2987, 3008, 2993, 2995]
ch2 : [1511, 1515, 1514, 1502, 1507, 1518, 1513, 1504, 1516, 1511]
ch3 : [2926, 2923, 2926, 2927, 2927, 2926, 2928, 2927, 2921, 2926]
ch0 : [2574, 2637, 2638, 2457, 2595, 2615, 2627, 2625, 2594, 2629]
ch1 : [2998, 3005, 3019, 2994, 3001, 2989, 2995, 3003, 2997, 2996]
ch2 : [1515, 1505, 1499, 1516, 1519, 1516, 1521, 1514, 1512, 1497]
ch3 : [2926, 2923, 2913, 2928, 2924, 2927, 2926, 2923, 2918, 2926]
ch0 : [2634, 2412, 2574, 2619, 2614, 2628, 2613, 2584, 2631, 2633]
ch1 : [3005, 3012, 2989, 2989, 3001, 2991, 3004, 2998, 3006, 3016]
ch2 : [1505, 1505, 1517, 1515, 1517, 1516, 1516, 1513, 1507, 1503]
ch3 : [2923, 2909, 2927, 2928, 2915, 2925, 2926, 2922, 2929, 2924]
ch0 : [2459, 2579, 2619, 2630, 2614, 2589, 2626, 2638, 2470, 2560]
ch1 : [2994, 2987, 2986, 2990, 2998, 3000, 2997, 3016, 3016, 2995]
ch2 : [1514, 1519, 1520, 1510, 1517, 1513, 1516, 1495, 1505, 1518]
ch3 : [2934, 2929, 2926, 2926, 2924, 2925, 2925, 2923, 2924, 2926]
ch0 : [2632, 2630, 2592, 2592, 2637, 2536, 2563, 2611, 2624, 2625]
ch1 : [2995, 3003, 2998, 2992, 3013, 3020, 3002, 3000, 3000, 2998]
ch2 : [1514, 1514, 1511, 1508, 1498, 1503, 1519, 1512, 1515, 1514]
ch3 : [2925, 2923, 2924, 2926, 2918, 2925, 2926, 2926, 2926, 2927]
ch0 : [2588, 2598, 2638, 2608, 2420, 2571, 2625, 2628, 2632, 2588]
ch1 : [3003, 3000, 3009, 3017, 3008, 2994, 2988, 2995, 3006, 3005]
ch2 : [1507, 1516, 1507, 1495, 1510, 1519, 1516, 1512, 1522, 1513]
ch3 : [2927, 2926, 2924, 2905, 2924, 2928, 2927, 2926, 2926, 2924]
ch0 : [2581, 2630, 2570, 2566, 2629, 2615, 2630, 2604, 2611, 2637]
ch1 : [3001, 3010, 3021, 2999, 2995, 3009, 2998, 3001, 3005, 3006]
ch2 : [1512, 1500, 1499, 1516, 1512, 1515, 1514, 1510, 1512, 1506]
ch3 : [2926, 2932, 2929, 2926, 2925, 2925, 2921, 2922, 2924, 2939]
ch0 : [2541, 2614, 2606, 2628, 2616, 2605, 2619, 2634, 2391, 2584]
ch1 : [2996, 2994, 3000, 3003, 3007, 3007, 3008, 3034, 3009, 2993]
ch2 : [1514, 1515, 1522, 1519, 1506, 1514, 1513, 1500, 1509, 1519]
ch3 : [2928, 2927, 2929, 2924, 2928, 2923, 2927, 2920, 2913, 2926]
ch0 : [2621, 2629, 2631, 2596, 2585, 2640, 2636, 2544, 2611, 2617]
ch1 : [2995, 2995, 3003, 3004, 2999, 3023, 3016, 3000, 2993, 2995]
ch2 : [1519, 1518, 1515, 1513, 1515, 1507, 1501, 1519, 1517, 1520]
ch3 : [2930, 2926, 2926, 2925, 2926, 2920, 2924, 2926, 2925, 2926]
ch0 : [2627, 2625, 2619, 2637, 2594, 2381, 2562, 2616, 2629, 2630]
ch1 : [2998, 3004, 3001, 3003, 3022, 3014, 2994, 2991, 2995, 3004]
ch2 : [1515, 1515, 1510, 1514, 1498, 1512, 1528, 1518, 1510, 1517]
ch3 : [2926, 2929, 2924, 2931, 2927, 2919, 2933, 2920, 2926, 2922]
ch0 : [2575, 2606, 2639, 2638, 2529, 2610, 2611, 2630, 2591, 2604]
ch1 : [3006, 3002, 3015, 3017, 3000, 2996, 2992, 2996, 3005, 3000]
ch2 : [1511, 1513, 1501, 1501, 1510, 1518, 1517, 1514, 1514, 1514]
ch3 : [2923, 2924, 2928, 2931, 2925, 2927, 2927, 2919, 2923, 2930]
ch0 : [2629, 2636, 2359, 2562, 2608, 2622, 2633, 2585, 2604, 2640]
ch1 : [3003, 3021, 3013, 2996, 2993, 2999, 3014, 3005, 3007, 3015]
ch2 : [1514, 1500, 1510, 1517, 1516, 1516, 1513, 1517, 1513, 1507]
ch3 : [2927, 2925, 2923, 2926, 2926, 2926, 2928, 2923, 2929, 2926]
ch0 : [2640, 2522, 2608, 2612, 2627, 2626, 2589, 2633, 2634, 2340]
ch1 : [3021, 3002, 2997, 3000, 2999, 3007, 3004, 3004, 3021, 3014]
ch2 : [1502, 1514, 1521, 1515, 1510, 1514, 1513, 1523, 1505, 1506]
ch3 : [2922, 2925, 2930, 2922, 2926, 2924, 2924, 2925, 2922, 2919]
ch0 : [2554, 2612, 2629, 2631, 2586, 2598, 2637, 2641, 2504, 2601]
ch1 : [2995, 2996, 2996, 3004, 3006, 3005, 3017, 3020, 3003, 2997]
ch2 : [1521, 1519, 1516, 1514, 1512, 1514, 1503, 1502, 1510, 1516]
ch3 : [2927, 2930, 2931, 2926, 2924, 2928, 2925, 2924, 2926, 2934]
ch0 : [2622, 2628, 2625, 2597, 2597, 2638, 2338, 2546, 2606, 2624]
ch1 : [2994, 3006, 3008, 3006, 3002, 3017, 3022, 2997, 2998, 3001]
ch2 : [1515, 1515, 1516, 1514, 1517, 1500, 1509, 1516, 1518, 1508]
ch3 : [2930, 2929, 2926, 2925, 2927, 2924, 2923, 2927, 2928, 2927]
ch0 : [2626, 2611, 2594, 2631, 2631, 2510, 2606, 2614, 2627, 2622]
ch1 : [3018, 3006, 3008, 3016, 3022, 3004, 3000, 3002, 3005, 3009]
ch2 : [1517, 1515, 1512, 1509, 1501, 1516, 1517, 1515, 1514, 1514]
ch3 : [2919, 2923, 2927, 2925, 2925, 2927, 2929, 2929, 2927, 2936]
ch0 : [2593, 2609, 2638, 2367, 2557, 2598, 2622, 2645, 2632, 2633]
ch1 : [3006, 3001, 3020, 3024, 2995, 2999, 2999, 3006, 3010, 3009]
ch2 : [1519, 1512, 1495, 1501, 1521, 1521, 1521, 1525, 1511, 1512]
ch3 : [2923, 2922, 2924, 2923, 2935, 2929, 2926, 2925, 2927, 2927]
ch0 : [2420, 2519, 2597, 2616, 2629, 2555, 2594, 2656, 2634, 2479]
ch1 : [3024, 3004, 3006, 3001, 3011, 3013, 3011, 3013, 3023, 3007]
ch2 : [1502, 1514, 1519, 1512, 1514, 1519, 1514, 1507, 1482, 1517]
ch3 : [2924, 2930, 2929, 2922, 2925, 2923, 2924, 2923, 2924, 2927]
ch0 : [2606, 2623, 2626, 2627, 2597, 2568, 2635, 2453, 2524, 2609]
ch1 : [2996, 3015, 3003, 3007, 3009, 3007, 3021, 3025, 3000, 2997]
ch2 : [1509, 1519, 1513, 1514, 1516, 1512, 1499, 1497, 1515, 1518]
ch3 : [2926, 2929, 2926, 2926, 2925, 2926, 2922, 2924, 2928, 2928]
ch0 : [2631, 2627, 2599, 2601, 2639, 2640, 2495, 2576, 2600, 2614]
ch1 : [2983, 3008, 3011, 3008, 3014, 3022, 3015, 3006, 3000, 3004]
ch2 : [1516, 1512, 1515, 1513, 1509, 1505, 1521, 1521, 1516, 1514]
ch3 : [2928, 2926, 2922, 2927, 2923, 2927, 2928, 2930, 2931, 2928]
ch0 : [2642, 2579, 2566, 2631, 2535, 2489, 2590, 2619, 2638, 2603]
ch1 : [3007, 3011, 3006, 3025, 3029, 3005, 2997, 3004, 3012, 3019]
ch2 : [1511, 1510, 1512, 1502, 1498, 1517, 1513, 1521, 1517, 1512]
ch3 : [2926, 2926, 2928, 2922, 2924, 2927, 2929, 2927, 2925, 2927]
ch0 : [2584, 2642, 2630, 2424, 2578, 2625, 2618, 2621, 2587, 2552]
ch1 : [3013, 3013, 3031, 3018, 3023, 3004, 3006, 3013, 3017, 3017]
ch2 : [1503, 1512, 1490, 1509, 1521, 1511, 1519, 1514, 1513, 1513]
ch3 : [2926, 2925, 2926, 2926, 2927, 2924, 2927, 2929, 2928, 2926]
ch0 : [2627, 2541, 2485, 2579, 2609, 2623, 2599, 2583, 2628, 2615]
ch1 : [3028, 3033, 3012, 3000, 3009, 3012, 3019, 3014, 3017, 3021]
ch2 : [1501, 1496, 1515, 1518, 1516, 1518, 1514, 1515, 1511, 1501]
ch3 : [2925, 2922, 2927, 2930, 2921, 2922, 2926, 2927, 2924, 2926]
ch0 : [2440, 2562, 2597, 2592, 2631, 2575, 2541, 2630, 2623, 2470]
ch1 : [3015, 3008, 3007, 3007, 3004, 3011, 3008, 3025, 3023, 2993]
ch2 : [1508, 1519, 1522, 1515, 1516, 1516, 1514, 1503, 1502, 1518]
ch3 : [2928, 2926, 2927, 2928, 2932, 2928, 2925, 2923, 2919, 2925]
ch0 : [2590, 2614, 2621, 2612, 2575, 2626, 2627, 2418, 2578, 2587]
ch1 : [3000, 2997, 3007, 3013, 3009, 3009, 3022, 3013, 2999, 2998]
ch2 : [1519, 1518, 1512, 1515, 1513, 1511, 1501, 1502, 1521, 1514]
ch3 : [2926, 2924, 2926, 2920, 2928, 2923, 2919, 2924, 2928, 2932]
ch0 : [2591, 2617, 2589, 2555, 2633, 2613, 2484, 2582, 2605, 2622]
ch1 : [3004, 3006, 3014, 3010, 3026, 3029, 3011, 3000, 3003, 3009]
ch2 : [1511, 1513, 1516, 1516, 1503, 1498, 1516, 1519, 1516, 1514]
ch3 : [2927, 2926, 2929, 2926, 2925, 2920, 2924, 2927, 2929, 2925]
ch0 : [2618, 2569, 2625, 2623, 2408, 2566, 2599, 2588, 2619, 2589]
ch1 : [3014, 3011, 3009, 3024, 3026, 3007, 3008, 3010, 3007, 3012]
ch2 : [1522, 1513, 1517, 1507, 1518, 1500, 1518, 1517, 1512, 1513]
ch3 : [2924, 2912, 2926, 2924, 2928, 2928, 2930, 2929, 2927, 2924]
ch0 : [2560, 2628, 2627, 2454, 2589, 2604, 2625, 2615, 2584, 2631]
ch1 : [3013, 3023, 3031, 3007, 3002, 3007, 3006, 3012, 3016, 3012]
ch2 : [1515, 1508, 1491, 1517, 1530, 1514, 1516, 1516, 1513, 1514]
ch3 : [2927, 2922, 2920, 2927, 2928, 2917, 2927, 2919, 2929, 2931]
ch0 : [2632, 2408, 2574, 2600, 2595, 2618, 2585, 2566, 2633, 2598]
ch1 : [3036, 3006, 3003, 3001, 3004, 3010, 3013, 3015, 3019, 3029]
ch2 : [1502, 1503, 1517, 1520, 1516, 1519, 1514, 1513, 1505, 1494]
ch3 : [2926, 2919, 2933, 2927, 2928, 2927, 2927, 2930, 2923, 2924]
ch0 : [2437, 2570, 2610, 2626, 2612, 2576, 2620, 2625, 2435, 2550]
ch1 : [3010, 3000, 3002, 3011, 3012, 3025, 3008, 3023, 3028, 3000]
ch2 : [1515, 1513, 1516, 1517, 1514, 1513, 1515, 1505, 1509, 1517]
ch3 : [2927, 2926, 2928, 2929, 2926, 2929, 2927, 2923, 2923, 2936]
ch0 : [2603, 2588, 2621, 2599, 2582, 2629, 2604, 2420, 2578, 2605]
ch1 : [3003, 3005, 3019, 3012, 3014, 3019, 3027, 3015, 2998, 2995]
ch2 : [1516, 1515, 1518, 1513, 1513, 1509, 1498, 1513, 1523, 1516]
ch3 : [2930, 2932, 2926, 2911, 2924, 2926, 2925, 2923, 2930, 2923]
ch0 : [2624, 2618, 2578, 2581, 2632, 2521, 2553, 2610, 2596, 2614]
ch1 : [3007, 3014, 3011, 2997, 3024, 3026, 3002, 3002, 3006, 3010]
ch2 : [1512, 1513, 1514, 1517, 1502, 1503, 1516, 1516, 1516, 1518]
ch3 : [2930, 2928, 2927, 2926, 2925, 2923, 2926, 2928, 2930, 2930]
ch0 : [2590, 2580, 2639, 2628, 2411, 2575, 2615, 2627, 2622, 2590]
ch1 : [3012, 3016, 3017, 3032, 3005, 3000, 3001, 3004, 3012, 3014]
ch2 : [1514, 1514, 1504, 1497, 1511, 1523, 1503, 1517, 1506, 1512]
ch3 : [2922, 2936, 2928, 2925, 2925, 2926, 2927, 2926, 2929, 2924]
ch0 : [2594, 2628, 2562, 2541, 2600, 2600, 2619, 2600, 2607, 2628]
ch1 : [3008, 3026, 3024, 3005, 3007, 3005, 3002, 3015, 3011, 3014]
ch2 : [1512, 1504, 1514, 1516, 1519, 1513, 1516, 1513, 1517, 1513]
ch3 : [2924, 2928, 2925, 2927, 2929, 2926, 2928, 2928, 2923, 2926]
ch0 : [2625, 2453, 2606, 2623, 2626, 2587, 2621, 2624, 2621, 2601]
ch1 : [3025, 3010, 3003, 3003, 3014, 3012, 3012, 3007, 3023, 3025]
ch2 : [1494, 1510, 1511, 1517, 1516, 1518, 1517, 1516, 1503, 1501]
ch3 : [2923, 2925, 2930, 2936, 2928, 2922, 2927, 2929, 2924, 2925]
ch0 : [2573, 2623, 2625, 2607, 2579, 2585, 2634, 2617, 2460, 2631]
ch1 : [3010, 2999, 3004, 3007, 3017, 3007, 3016, 3031, 3016, 3004]
ch2 : [1517, 1519, 1534, 1516, 1514, 1519, 1511, 1500, 1509, 1523]
ch3 : [2930, 2928, 2932, 2933, 2928, 2930, 2926, 2923, 2926, 2935]
ch0 : [2632, 2645, 2566, 2525, 2629, 2646, 2645, 2532, 2597, 2634]
ch1 : [3005, 3009, 3020, 3010, 3015, 3028, 3023, 3014, 3007, 3008]
ch2 : [1519, 1509, 1513, 1510, 1512, 1505, 1501, 1513, 1516, 1510]
ch3 : [2936, 2927, 2924, 2929, 2917, 2925, 2930, 2938, 2927, 2933]
ch0 : [2641, 2642, 2629, 2648, 2649, 2509, 2650, 2646, 2503, 2600]
ch1 : [3013, 3017, 3014, 3017, 3036, 3021, 3004, 3007, 3012, 3020]
ch2 : [1514, 1514, 1511, 1509, 1495, 1506, 1521, 1515, 1516, 1505]
ch3 : [2926, 2927, 2925, 2913, 2925, 2918, 2927, 2926, 2926, 2925]
ch0 : [2554, 2644, 2659, 2663, 2601, 2629, 2659, 2642, 2568, 2585]
ch1 : [3021, 3017, 3023, 3032, 3018, 3014, 3009, 3015, 3024, 3021]
ch2 : [1516, 1512, 1502, 1500, 1512, 1512, 1513, 1525, 1510, 1511]
ch3 : [2925, 2914, 2924, 2923, 2925, 2930, 2934, 2923, 2922, 2934]
ch0 : [2652, 2596, 2423, 2653, 2649, 2561, 2553, 2583, 2579, 2649]
ch1 : [3012, 3035, 3025, 3008, 3006, 3005, 3017, 3014, 3009, 3016]
ch2 : [1509, 1498, 1506, 1516, 1517, 1527, 1511, 1513, 1513, 1507]
ch3 : [2934, 2922, 2922, 2924, 2925, 2923, 2924, 2924, 2922, 2922]
ch0 : [2636, 2620, 2642, 2613, 2586, 2630, 2612, 2644, 2652, 2376]
ch1 : [3019, 3003, 2995, 2997, 2997, 3014, 3002, 3001, 3023, 3026]
ch2 : [1494, 1513, 1514, 1516, 1517, 1513, 1507, 1511, 1495, 1503]
ch3 : [2920, 2923, 2925, 2925, 2923, 2928, 2924, 2920, 2916, 2921]
ch0 : [2596, 2562, 2643, 2648, 2511, 2591, 2651, 2657, 2545, 2642]
ch1 : [2989, 2986, 2993, 3003, 2997, 2999, 3014, 3019, 3004, 2992]
ch2 : [1513, 1515, 1512, 1523, 1505, 1508, 1503, 1493, 1504, 1514]
ch3 : [2928, 2927, 2924, 2920, 2921, 2930, 2920, 2918, 2923, 2922]
ch0 : [2358, 2634, 2635, 2621, 2516, 2536, 2340, 2509, 2591, 2594]
ch1 : [3002, 3004, 3000, 3001, 2996, 3028, 3015, 2996, 3001, 2997]
ch2 : [1506, 1510, 1509, 1508, 1510, 1495, 1500, 1513, 1512, 1507]
ch3 : [2922, 2920, 2907, 2920, 2921, 2918, 2921, 2923, 2925, 2925]
ch0 : [2626, 2572, 2557, 2636, 2579, 2500, 2629, 2608, 2513, 2492]
ch1 : [3005, 3012, 3003, 3015, 3019, 3008, 2999, 3002, 3010, 3015]
ch2 : [1511, 1523, 1503, 1500, 1492, 1507, 1512, 1507, 1519, 1499]
ch3 : [2921, 2921, 2918, 2905, 2915, 2922, 2919, 2924, 2924, 2925]
ch0 : [2611, 2565, 2598, 2215, 2538, 2622, 2614, 2632, 2403, 2372]
ch1 : [3007, 3007, 3028, 3028, 2999, 3005, 3002, 3013, 3019, 3017]
ch2 : [1504, 1508, 1499, 1496, 1503, 1511, 1506, 1518, 1505, 1508]
ch3 : [2927, 2924, 2922, 2932, 2927, 2921, 2923, 2923, 2918, 2934]
ch0 : [2432, 2479, 2414, 2518, 2606, 2593, 2572, 2610, 2597, 2391]
ch1 : [3052, 3031, 3030, 3038, 3043, 3049, 3049, 3058, 3062, 3063]
ch2 : [1497, 1509, 1509, 1508, 1504, 1506, 1502, 1501, 1484, 1496]
ch3 : [2923, 2928, 2928, 2929, 2928, 2922, 2921, 2923, 2923, 2925]
ch0 : [2516, 2579, 2591, 2572, 2501, 2535, 2617, 2381, 2454, 2550]
ch1 : [3053, 3056, 3061, 3067, 3071, 3066, 3086, 3092, 3073, 3070]
ch2 : [1507, 1506, 1504, 1500, 1502, 1501, 1492, 1489, 1504, 1506]
ch3 : [2927, 2919, 2926, 2922, 2925, 2928, 2919, 2922, 2925, 2929]
ch0 : [2593, 2603, 2500, 2467, 2594, 2587, 2465, 2523, 2548, 2562]
ch1 : [3075, 3083, 3092, 3083, 3092, 3096, 3092, 3091, 3087, 3091]
ch2 : [1505, 1487, 1497, 1514, 1498, 1484, 1497, 1508, 1508, 1502]
ch3 : [2925, 2919, 2922, 2924, 2924, 2926, 2921, 2929, 2924, 2925]
ch0 : [2531, 2502, 2479, 2598, 2421, 2434, 2447, 2547, 2591, 2511]
ch1 : [3098, 3097, 3094, 3105, 3110, 3096, 3098, 3098, 3105, 3113]
ch2 : [1498, 1499, 1502, 1488, 1484, 1505, 1509, 1508, 1505, 1500]
ch3 : [2926, 2923, 2922, 2922, 2921, 2926, 2925, 2924, 2923, 2931]
ch0 : [2520, 2590, 2521, 2366, 2519, 2526, 2544, 2574, 2575, 2470]
ch1 : [3102, 3107, 3115, 3114, 3103, 3105, 3103, 3109, 3111, 3120]
ch2 : [1498, 1496, 1490, 1496, 1507, 1504, 1501, 1508, 1499, 1504]
ch3 : [2920, 2923, 2921, 2924, 2928, 2922, 2917, 2924, 2928, 2926]
ch0 : [2601, 2486, 2381, 2398, 2567, 2577, 2548, 2495, 2583, 2536]
ch1 : [3120, 3121, 3113, 3105, 3109, 3116, 3114, 3112, 3115, 3124]
ch2 : [1496, 1486, 1508, 1509, 1508, 1504, 1502, 1507, 1503, 1491]
ch3 : [2925, 2924, 2927, 2923, 2931, 2928, 2922, 2926, 2924, 2926]
ch0 : [2333, 2479, 2546, 2522, 2527, 2492, 2488, 2575, 2537, 2392]
ch1 : [3114, 3114, 3114, 3111, 3115, 3119, 3119, 3128, 3126, 3115]
ch2 : [1499, 1507, 1508, 1505, 1504, 1503, 1500, 1490, 1489, 1507]
ch3 : [2926, 2926, 2926, 2919, 2923, 2921, 2927, 2919, 2921, 2926]
ch0 : [2517, 2535, 2570, 2527, 2486, 2577, 2576, 2334, 2483, 2525]
ch1 : [3114, 3116, 3119, 3120, 3119, 3121, 3128, 3124, 3113, 3113]
ch2 : [1506, 1517, 1508, 1503, 1505, 1503, 1497, 1499, 1510, 1509]
ch3 : [2925, 2925, 2925, 2937, 2927, 2928, 2924, 2927, 2931, 2928]
ch0 : [2520, 2535, 2493, 2476, 2576, 2532, 2383, 2504, 2536, 2560]
ch1 : [3111, 3114, 3115, 3121, 3121, 3123, 3111, 3097, 3105, 3115]
ch2 : [1502, 1508, 1503, 1506, 1485, 1494, 1504, 1508, 1511, 1508]
ch3 : [2929, 2925, 2924, 2922, 2918, 2923, 2925, 2926, 2925, 2923]
ch0 : [2530, 2494, 2572, 2544, 2345, 2496, 2533, 2531, 2557, 2524]
ch1 : [3111, 3115, 3113, 3121, 3119, 3107, 3108, 3112, 3112, 3117]
ch2 : [1504, 1505, 1506, 1496, 1494, 1503, 1509, 1507, 1502, 1510]
ch3 : [2923, 2920, 2926, 2925, 2923, 2927, 2925, 2926, 2923, 2919]
ch0 : [2493, 2575, 2565, 2413, 2523, 2551, 2571, 2552, 2525, 2571]
ch1 : [3111, 3120, 3123, 3113, 3108, 3108, 3112, 3117, 3112, 3111]
ch2 : [1507, 1498, 1489, 1501, 1512, 1510, 1506, 1498, 1505, 1507]
ch3 : [2926, 2921, 2922, 2924, 2928, 2926, 2926, 2924, 2919, 2926]
ch0 : [2579, 2380, 2513, 2570, 2556, 2580, 2543, 2540, 2586, 2566]
ch1 : [3111, 3119, 3109, 3117, 3109, 3107, 3114, 3113, 3120, 3123]
ch2 : [1495, 1497, 1515, 1509, 1507, 1518, 1505, 1508, 1503, 1479]
ch3 : [2923, 2922, 2914, 2926, 2923, 2925, 2925, 2926, 2923, 2925]
ch0 : [2400, 2549, 2576, 2590, 2567, 2555, 2586, 2589, 2394, 2535]
ch1 : [3110, 3108, 3108, 3109, 3114, 3115, 3117, 3121, 3120, 3108]
ch2 : [1508, 1511, 1516, 1508, 1524, 1503, 1511, 1495, 1500, 1506]
ch3 : [2919, 2925, 2929, 2922, 2924, 2922, 2923, 2925, 2922, 2925]
ch0 : [2559, 2567, 2593, 2551, 2536, 2600, 2593, 2400, 2535, 2577]
ch1 : [3112, 3108, 3115, 3116, 3113, 3120, 3129, 3121, 3113, 3112]
ch2 : [1513, 1512, 1509, 1511, 1507, 1500, 1493, 1510, 1516, 1507]
ch3 : [2929, 2927, 2922, 2923, 2925, 2925, 2922, 2927, 2926, 2922]
ch0 : [2594, 2564, 2537, 2559, 2601, 2453, 2522, 2570, 2564, 2582]
ch1 : [3110, 3120, 3118, 3116, 3126, 3128, 3115, 3113, 3120, 3116]
ch2 : [1510, 1509, 1509, 1512, 1497, 1497, 1510, 1512, 1511, 1504]
ch3 : [2923, 2920, 2919, 2918, 2923, 2923, 2923, 2925, 2923, 2925]
ch0 : [2548, 2566, 2604, 2545, 2357, 2545, 2578, 2599, 2600, 2557]
ch1 : [3118, 3123, 3126, 3133, 3122, 3118, 3114, 3117, 3119, 3116]
ch2 : [1506, 1508, 1503, 1489, 1507, 1515, 1508, 1510, 1509, 1509]
ch3 : [2924, 2923, 2919, 2925, 2926, 2923, 2924, 2929, 2921, 2923]
ch0 : [2549, 2605, 2529, 2499, 2570, 2573, 2586, 2552, 2557, 2597]
ch1 : [3118, 3126, 3125, 3112, 3113, 3119, 3116, 3118, 3125, 3121]
ch2 : [1523, 1502, 1499, 1510, 1511, 1510, 1511, 1503, 1513, 1496]
ch3 : [2924, 2923, 2918, 2923, 2934, 2927, 2923, 2931, 2925, 2928]
ch0 : [2521, 2359, 2540, 2567, 2597, 2586, 2555, 2547, 2608, 2555]
ch1 : [3126, 3118, 3110, 3109, 3111, 3112, 3117, 3114, 3121, 3118]
ch2 : [1493, 1507, 1515, 1511, 1494, 1508, 1525, 1507, 1495, 1494]
ch3 : [2923, 2926, 2926, 2921, 2927, 2919, 2922, 2925, 2918, 2919]
ch0 : [2509, 2574, 2580, 2595, 2582, 2556, 2609, 2608, 2348, 2530]
ch1 : [3107, 3112, 3109, 3109, 3117, 3116, 3115, 3132, 3114, 3108]
ch2 : [1511, 1511, 1511, 1509, 1508, 1510, 1504, 1488, 1506, 1518]
ch3 : [2924, 2925, 2928, 2925, 2925, 2924, 2923, 2923, 2924, 2932]
ch0 : [2586, 2589, 2602, 2564, 2553, 2609, 2604, 2502, 2593, 2581]
ch1 : [3104, 3106, 3113, 3111, 3111, 3116, 3115, 3106, 3107, 3104]
ch2 : [1509, 1509, 1507, 1518, 1510, 1494, 1496, 1511, 1514, 1510]
ch3 : [2928, 2911, 2924, 2925, 2927, 2920, 2923, 2927, 2927, 2929]
ch0 : [2597, 2573, 2568, 2610, 2608, 2354, 2546, 2581, 2596, 2599]
ch1 : [3107, 3107, 3107, 3119, 3114, 3113, 3101, 3085, 3104, 3106]
ch2 : [1510, 1508, 1507, 1502, 1499, 1504, 1511, 1512, 1510, 1507]
ch3 : [2926, 2924, 2919, 2923, 2924, 2924, 2927, 2927, 2923, 2925]
ch0 : [2562, 2568, 2607, 2579, 2511, 2571, 2594, 2593, 2586, 2573]
ch1 : [3103, 3105, 3110, 3110, 3103, 3096, 3099, 3098, 3095, 3100]
ch2 : [1511, 1508, 1502, 1505, 1514, 1516, 1512, 1514, 1513, 1504]
ch3 : [2927, 2925, 2923, 2924, 2924, 2916, 2925, 2925, 2927, 2928]
ch0 : [2604, 2499, 2587, 2587, 2607, 2591, 2567, 2607, 2601, 2334]
ch1 : [3108, 3101, 3093, 3094, 3099, 3104, 3103, 3096, 3105, 3105]
ch2 : [1502, 1509, 1514, 1509, 1510, 1512, 1510, 1511, 1477, 1506]
ch3 : [2927, 2926, 2939, 2926, 2924, 2919, 2928, 2927, 2921, 2912]
ch0 : [2545, 2590, 2604, 2612, 2572, 2572, 2615, 2573, 2490, 2604]
ch1 : [3092, 3091, 3096, 3100, 3092, 3099, 3109, 3123, 3098, 3100]
ch2 : [1517, 1516, 1504, 1507, 1511, 1493, 1501, 1496, 1507, 1516]
ch3 : [2927, 2930, 2927, 2923, 2923, 2927, 2925, 2925, 2926, 2930]
ch0 : [2598, 2604, 2606, 2561, 2610, 2621, 2321, 2528, 2594, 2597]
ch1 : [3097, 3096, 3097, 3098, 3100, 3107, 3106, 3090, 3097, 3087]
ch2 : [1511, 1504, 1509, 1513, 1508, 1494, 1500, 1513, 1512, 1505]
ch3 : [2925, 2924, 2930, 2927, 2927, 2922, 2929, 2928, 2927, 2926]
ch0 : [2607, 2565, 2577, 2623, 2629, 2468, 2588, 2588, 2613, 2594]
ch1 : [3100, 3098, 3095, 3107, 3105, 3100, 3097, 3096, 3093, 3096]
ch2 : [1511, 1508, 1511, 1502, 1497, 1508, 1509, 1511, 1509, 1505]
ch3 : [2925, 2926, 2927, 2923, 2933, 2926, 2927, 2926, 2926, 2926]
ch0 : [2570, 2561, 2603, 2313, 2530, 2580, 2601, 2614, 2556, 2587]
ch1 : [3095, 3096, 3106, 3098, 3076, 3089, 3092, 3100, 3099, 3094]
ch2 : [1518, 1508, 1496, 1498, 1515, 1514, 1512, 1509, 1508, 1505]
ch3 : [2919, 2921, 2925, 2923, 2927, 2929, 2928, 2923, 2922, 2923]
ch0 : [2620, 2600, 2467, 2576, 2599, 2610, 2590, 2558, 2543, 2622]
ch1 : [3099, 3103, 3096, 3093, 3092, 3096, 3093, 3096, 3097, 3108]
ch2 : [1504, 1497, 1510, 1513, 1511, 1511, 1519, 1509, 1510, 1492]
ch3 : [2925, 2925, 2926, 2927, 2927, 2925, 2927, 2925, 2927, 2924]
ch0 : [2349, 2534, 2596, 2614, 2612, 2568, 2600, 2601, 2621, 2472]
ch1 : [3105, 3088, 3089, 3092, 3096, 3091, 3095, 3098, 3108, 3096]
ch2 : [1497, 1497, 1513, 1512, 1501, 1506, 1513, 1500, 1495, 1516]
ch3 : [2919, 2926, 2928, 2924, 2927, 2924, 2920, 2924, 2933, 2929]
ch0 : [2587, 2599, 2612, 2601, 2564, 2542, 2621, 2438, 2510, 2592]
ch1 : [3093, 3089, 3095, 3097, 3098, 3099, 3107, 3108, 3094, 3091]
ch2 : [1514, 1511, 1510, 1509, 1509, 1510, 1496, 1491, 1517, 1513]
ch3 : [2928, 2929, 2929, 2926, 2925, 2926, 2923, 2924, 2926, 2929]
ch0 : [2609, 2611, 2587, 2601, 2623, 2622, 2454, 2590, 2596, 2617]
ch1 : [3093, 3098, 3102, 3097, 3110, 3105, 3098, 3097, 3097, 3096]
ch2 : [1508, 1506, 1508, 1507, 1503, 1491, 1506, 1513, 1511, 1512]
ch3 : [2930, 2922, 2925, 2939, 2924, 2922, 2928, 2927, 2928, 2926]
ch0 : [2611, 2574, 2554, 2621, 2456, 2503, 2598, 2613, 2614, 2581]
ch1 : [3095, 3101, 3100, 3109, 3112, 3097, 3096, 3096, 3100, 3101]
ch2 : [1510, 1511, 1510, 1497, 1496, 1513, 1514, 1512, 1505, 1513]
ch3 : [2927, 2923, 2926, 2923, 2929, 2926, 2928, 2928, 2926, 2923]
ch0 : [2627, 2592, 2484, 2580, 2608, 2621, 2586, 2599, 2622, 2626]
ch1 : [3105, 3124, 3098, 3093, 3101, 3101, 3103, 3099, 3105, 3116]
ch2 : [1499, 1496, 1509, 1515, 1515, 1511, 1508, 1511, 1507, 1499]
ch3 : [2926, 2923, 2926, 2926, 2929, 2926, 2925, 2924, 2926, 2932]
ch0 : [2426, 2571, 2600, 2597, 2605, 2576, 2551, 2621, 2567, 2481]
ch1 : [3107, 3099, 3096, 3098, 3099, 3101, 3102, 3107, 3113, 3097]
ch2 : [1507, 1517, 1513, 1511, 1509, 1509, 1509, 1497, 1495, 1511]
ch3 : [2928, 2933, 2925, 2927, 2923, 2928, 2925, 2928, 2924, 2925]
ch0 : [2564, 2603, 2613, 2580, 2584, 2625, 2609, 2420, 2560, 2596]
ch1 : [3092, 3096, 3100, 3105, 3106, 3100, 3112, 3103, 3095, 3100]
ch2 : [1510, 1512, 1514, 1510, 1509, 1510, 1494, 1504, 1513, 1515]
ch3 : [2926, 2928, 2923, 2924, 2928, 2921, 2926, 2929, 2927, 2929]
ch0 : [2596, 2610, 2583, 2558, 2617, 2602, 2462, 2571, 2608, 2628]
ch1 : [3101, 3099, 3100, 3098, 3102, 3111, 3098, 3097, 3097, 3101]
ch2 : [1514, 1513, 1495, 1512, 1499, 1499, 1513, 1515, 1514, 1511]
ch3 : [2915, 2929, 2932, 2926, 2919, 2923, 2929, 2929, 2927, 2926]
ch0 : [2589, 2587, 2617, 2608, 2403, 2555, 2598, 2588, 2610, 2584]
ch1 : [3104, 3098, 3099, 3105, 3104, 3096, 3090, 3090, 3100, 3101]
ch2 : [1511, 1507, 1508, 1496, 1505, 1515, 1515, 1513, 1517, 1511]
ch3 : [2921, 2926, 2924, 2928, 2927, 2929, 2929, 2934, 2926, 2926]
ch0 : [2544, 2627, 2569, 2439, 2568, 2597, 2614, 2591, 2574, 2615]
ch1 : [3094, 3106, 3124, 3096, 3091, 3092, 3091, 3101, 3101, 3097]
ch2 : [1511, 1503, 1491, 1513, 1504, 1513, 1512, 1511, 1510, 1511]
ch3 : [2929, 2915, 2924, 2929, 2929, 2929, 2931, 2922, 2926, 2926]
ch0 : [2625, 2394, 2561, 2586, 2593, 2618, 2578, 2556, 2618, 2624]
ch1 : [3102, 3100, 3092, 3093, 3097, 3095, 3099, 3100, 3104, 3107]
ch2 : [1496, 1505, 1518, 1519, 1513, 1513, 1511, 1511, 1509, 1494]
ch3 : [2919, 2926, 2927, 2935, 2926, 2927, 2924, 2927, 2926, 2926]
ch0 : [2449, 2564, 2596, 2613, 2611, 2573, 2615, 2618, 2409, 2539]
ch1 : [3099, 3092, 3091, 3096, 3100, 3089, 3097, 3104, 3098, 3092]
ch2 : [1512, 1513, 1515, 1514, 1516, 1510, 1512, 1493, 1503, 1508]
ch3 : [2926, 2922, 2927, 2927, 2924, 2928, 2924, 2926, 2923, 2930]
ch0 : [2584, 2599, 2608, 2565, 2573, 2628, 2619, 2422, 2565, 2596]
ch1 : [3100, 3091, 3096, 3100, 3095, 3104, 3109, 3101, 3091, 3091]
ch2 : [1518, 1518, 1516, 1514, 1512, 1504, 1499, 1511, 1518, 1511]
ch3 : [2932, 2929, 2924, 2925, 2924, 2925, 2926, 2926, 2927, 2928]
ch0 : [2615, 2613, 2573, 2593, 2619, 2475, 2558, 2603, 2601, 2612]
ch1 : [3090, 3111, 3099, 3096, 3105, 3103, 3091, 3086, 3099, 3097]
ch2 : [1512, 1513, 1509, 1514, 1502, 1505, 1512, 1516, 1514, 1513]
ch3 : [2927, 2922, 2919, 2929, 2925, 2924, 2926, 2928, 2929, 2928]
ch0 : [2586, 2627, 2525, 2553, 2603, 2595, 2618, 2583, 2602, 2629]
ch1 : [3095, 3104, 3101, 3092, 3091, 3096, 3090, 3097, 3094, 3099]
ch2 : [1513, 1506, 1501, 1512, 1533, 1515, 1512, 1514, 1517, 1506]
ch3 : [2924, 2928, 2926, 2931, 2928, 2929, 2929, 2924, 2927, 2923]
ch0 : [2604, 2399, 2576, 2605, 2620, 2613, 2587, 2579, 2625, 2561]
ch1 : [3108, 3098, 3089, 3092, 3092, 3096, 3093, 3093, 3101, 3104]
ch2 : [1498, 1519, 1518, 1517, 1513, 1510, 1501, 1511, 1501, 1501]
ch3 : [2923, 2929, 2929, 2930, 2927, 2923, 2924, 2925, 2925, 2923]
ch0 : [2550, 2599, 2597, 2610, 2598, 2593, 2632, 2615, 2392, 2568]
ch1 : [3096, 3090, 3091, 3090, 3097, 3090, 3095, 3109, 3098, 3095]
ch2 : [1519, 1517, 1517, 1515, 1514, 1514, 1515, 1498, 1511, 1515]
ch3 : [2934, 2927, 2927, 2927, 2925, 2923, 2923, 2924, 2922, 2928]
ch0 : [2606, 2616, 2606, 2579, 2576, 2631, 2586, 2530, 2589, 2598]
ch1 : [3090, 3090, 3096, 3095, 3097, 3101, 3108, 3088, 3092, 3093]
ch2 : [1518, 1516, 1516, 1519, 1514, 1504, 1512, 1521, 1519, 1518]
ch3 : [2930, 2926, 2924, 2924, 2928, 2932, 2923, 2929, 2922, 2927]
ch0 : [2622, 2593, 2603, 2632, 2590, 2376, 2565, 2615, 2616, 2627]
ch1 : [3091, 3098, 3097, 3098, 3106, 3099, 3089, 3089, 3093, 3094]
ch2 : [1517, 1517, 1521, 1512, 1507, 1512, 1519, 1521, 1518, 1514]
ch3 : [2928, 2923, 2927, 2928, 2925, 2929, 2928, 2927, 2929, 2923]
ch0 : [2588, 2584, 2623, 2609, 2527, 2610, 2610, 2620, 2611, 2592]
ch1 : [3097, 3093, 3097, 3099, 3094, 3090, 3087, 3090, 3094, 3095]
ch2 : [1516, 1523, 1505, 1503, 1517, 1523, 1514, 1530, 1515, 1518]
ch3 : [2925, 2929, 2923, 2923, 2927, 2926, 2926, 2928, 2916, 2927]
ch0 : [2632, 2628, 2358, 2551, 2605, 2601, 2621, 2593, 2580, 2633]
ch1 : [3094, 3105, 3095, 3080, 3088, 3090, 3098, 3097, 3097, 3101]
ch2 : [1510, 1495, 1510, 1518, 1517, 1514, 1513, 1512, 1513, 1502]
ch3 : [2928, 2919, 2923, 2930, 2927, 2929, 2927, 2923, 2926, 2925]
ch0 : [2628, 2526, 2607, 2604, 2618, 2605, 2589, 2628, 2645, 2327]
ch1 : [3105, 3093, 3090, 3089, 3092, 3097, 3097, 3099, 3105, 3104]
ch2 : [1503, 1513, 1517, 1510, 1513, 1513, 1511, 1514, 1496, 1499]
ch3 : [2925, 2925, 2929, 2932, 2930, 2927, 2936, 2926, 2923, 2926]
ch0 : [2547, 2606, 2616, 2620, 2580, 2584, 2623, 2629, 2503, 2611]
ch1 : [3077, 3087, 3096, 3095, 3099, 3092, 3100, 3108, 3097, 3090]
ch2 : [1519, 1519, 1513, 1509, 1511, 1510, 1500, 1498, 1511, 1517]
ch3 : [2927, 2930, 2927, 2925, 2926, 2928, 2928, 2928, 2927, 2926]
ch0 : [2613, 2621, 2604, 2574, 2606, 2618, 2338, 2555, 2612, 2620]
ch1 : [3089, 3091, 3097, 3097, 3097, 3102, 3101, 3091, 3089, 3092]
ch2 : [1514, 1513, 1525, 1513, 1511, 1500, 1499, 1525, 1514, 1513]
ch3 : [2928, 2929, 2926, 2929, 2927, 2924, 2922, 2928, 2927, 2927]
ch0 : [2623, 2603, 2591, 2633, 2615, 2506, 2605, 2606, 2624, 2607]
ch1 : [3104, 3093, 3100, 3101, 3102, 3093, 3088, 3087, 3107, 3094]
ch2 : [1509, 1510, 1512, 1491, 1500, 1510, 1516, 1511, 1514, 1514]
ch3 : [2926, 2927, 2926, 2928, 2926, 2931, 2924, 2929, 2928, 2926]
ch0 : [2579, 2578, 2633, 2341, 2536, 2611, 2620, 2625, 2589, 2607]
ch1 : [3097, 3095, 3109, 3108, 3092, 3092, 3093, 3097, 3099, 3095]
ch2 : [1516, 1515, 1496, 1501, 1515, 1517, 1514, 1509, 1507, 1510]
ch3 : [2929, 2927, 2929, 2923, 2928, 2929, 2926, 2926, 2924, 2928]
ch0 : [2639, 2646, 2490, 2594, 2597, 2625, 2623, 2591, 2566, 2634]
ch1 : [3101, 3106, 3097, 3095, 3092, 3094, 3095, 3096, 3093, 3106]
ch2 : [1504, 1481, 1508, 1512, 1525, 1513, 1511, 1510, 1511, 1502]
ch3 : [2921, 2924, 2928, 2915, 2928, 2929, 2927, 2928, 2926, 2924]
ch0 : [2360, 2520, 2616, 2632, 2626, 2601, 2607, 2634, 2633, 2483]
ch1 : [3103, 3091, 3089, 3095, 3098, 3100, 3101, 3103, 3105, 3099]
ch2 : [1497, 1518, 1516, 1512, 1513, 1511, 1510, 1504, 1498, 1509]
ch3 : [2925, 2927, 2927, 2928, 2922, 2931, 2926, 2922, 2922, 2930]
ch0 : [2607, 2621, 2625, 2620, 2585, 2534, 2634, 2451, 2532, 2613]
ch1 : [3091, 3094, 3093, 3097, 3100, 3097, 3109, 3109, 3097, 3089]
ch2 : [1515, 1513, 1517, 1501, 1514, 1511, 1499, 1493, 1510, 1516]
ch3 : [2930, 2927, 2922, 2929, 2928, 2927, 2926, 2923, 2931, 2929]
ch0 : [2618, 2635, 2580, 2597, 2634, 2628, 2484, 2596, 2610, 2623]
ch1 : [3089, 3097, 3101, 3097, 3101, 3106, 3098, 3095, 3093, 3095]
ch2 : [1513, 1510, 1512, 1511, 1504, 1502, 1503, 1516, 1517, 1511]
ch3 : [2929, 2929, 2927, 2926, 2927, 2924, 2932, 2925, 2935, 2922]
ch0 : [2613, 2586, 2566, 2634, 2527, 2534, 2590, 2625, 2629, 2600]
ch1 : [3095, 3098, 3100, 3107, 3103, 3095, 3088, 3093, 3100, 3101]
ch2 : [1516, 1513, 1510, 1504, 1495, 1514, 1520, 1514, 1509, 1511]
ch3 : [2930, 2927, 2928, 2919, 2928, 2927, 2932, 2929, 2927, 2929]
ch0 : [2620, 2633, 2629, 2453, 2588, 2615, 2626, 2623, 2586, 2564]
ch1 : [3095, 3100, 3105, 3100, 3093, 3087, 3091, 3096, 3092, 3093]
ch2 : [1511, 1518, 1500, 1503, 1515, 1515, 1512, 1511, 1517, 1510]
ch3 : [2912, 2928, 2927, 2929, 2931, 2926, 2931, 2930, 2927, 2932]
ch0 : [2634, 2615, 2504, 2603, 2622, 2623, 2601, 2613, 2634, 2630]
ch1 : [3104, 3114, 3092, 3089, 3085, 3092, 3100, 3090, 3094, 3102]
ch2 : [1497, 1492, 1517, 1514, 1514, 1513, 1509, 1509, 1504, 1482]
ch3 : [2925, 2928, 2928, 2930, 2927, 2928, 2928, 2929, 2929, 2928]
ch0 : [2428, 2584, 2636, 2584, 2622, 2602, 2550, 2632, 2617, 2496]
ch1 : [3097, 3089, 3092, 3090, 3092, 3100, 3092, 3103, 3108, 3103]
ch2 : [1507, 1515, 1514, 1514, 1510, 1511, 1514, 1502, 1493, 1512]
ch3 : [2927, 2930, 2927, 2927, 2933, 2925, 2929, 2924, 2924, 2931]
ch0 : [2609, 2625, 2591, 2573, 2636, 2626, 2486, 2599, 2610, 2624]
ch1 : [3089, 3090, 3082, 3096, 3113, 3098, 3090, 3089, 3087, 3091]
ch2 : [1509, 1513, 1507, 1512, 1502, 1498, 1513, 1516, 1512, 1511]
ch3 : [2923, 2928, 2926, 2927, 2927, 2924, 2932, 2929, 2926, 2927]
ch0 : [2612, 2594, 2631, 2616, 2407, 2580, 2618, 2608, 2630, 2589]
ch1 : [3098, 3094, 3092, 3098, 3096, 3087, 3090, 3078, 3094, 3095]
ch2 : [1511, 1514, 1513, 1500, 1505, 1517, 1516, 1514, 1516, 1510]
ch3 : [2924, 2937, 2924, 2929, 2928, 2923, 2932, 2929, 2931, 2932]
ch0 : [2555, 2633, 2615, 2493, 2630, 2624, 2633, 2600, 2598, 2635]
ch1 : [3099, 3097, 3105, 3090, 3086, 3084, 3093, 3097, 3096, 3087]
ch2 : [1520, 1501, 1500, 1529, 1515, 1518, 1513, 1508, 1515, 1512]
ch3 : [2930, 2923, 2922, 2929, 2932, 2930, 2937, 2923, 2925, 2923]
ch0 : [2643, 2489, 2614, 2642, 2611, 2622, 2632, 2561, 2628, 2633]
ch1 : [3101, 3100, 3090, 3087, 3089, 3093, 3097, 3094, 3099, 3104]
ch2 : [1502, 1504, 1511, 1516, 1515, 1509, 1510, 1512, 1499, 1501]
ch3 : [2930, 2926, 2921, 2926, 2929, 2927, 2926, 2927, 2930, 2926]
ch0 : [2519, 2643, 2645, 2652, 2650, 2598, 2630, 2648, 2509, 2647]
ch1 : [3090, 3090, 3086, 3096, 3095, 3100, 3105, 3107, 3104, 3091]
ch2 : [1511, 1517, 1508, 1509, 1506, 1509, 1510, 1498, 1499, 1509]
ch3 : [2941, 2929, 2923, 2930, 2922, 2928, 2927, 2926, 2926, 2928]
ch0 : [2655, 2644, 2654, 2485, 2526, 2644, 2622, 2551, 2646, 2659]
ch1 : [3089, 3091, 3096, 3101, 3094, 3103, 3099, 3103, 3090, 3105]
ch2 : [1512, 1516, 1495, 1509, 1509, 1502, 1496, 1512, 1518, 1514]
ch3 : [2919, 2929, 2927, 2925, 2929, 2925, 2929, 2925, 2930, 2924]
ch0 : [2664, 2662, 2553, 2501, 2652, 2537, 2634, 2640, 2654, 2651]
ch1 : [3098, 3112, 3105, 3103, 3113, 3110, 3099, 3097, 3096, 3100]
ch2 : [1514, 1510, 1506, 1507, 1500, 1493, 1512, 1514, 1512, 1512]
ch3 : [2926, 2918, 2924, 2925, 2919, 2924, 2924, 2926, 2923, 2926]
ch0 : [2647, 2669, 2679, 2543, 2234, 2462, 2642, 2649, 2652, 2659]
ch1 : [3105, 3099, 3110, 3119, 3108, 3102, 3096, 3106, 3112, 3103]
ch2 : [1508, 1512, 1497, 1495, 1502, 1515, 1515, 1510, 1506, 1507]
ch3 : [2918, 2920, 2924, 2926, 2924, 2926, 2927, 2925, 2921, 2919]
ch0 : [2660, 2626, 2385, 2425, 2646, 2650, 2631, 2502, 2563, 2650]
ch1 : [3105, 3116, 3115, 3097, 3098, 3100, 3100, 3106, 3105, 3108]
ch2 : [1504, 1491, 1490, 1509, 1512, 1501, 1509, 1510, 1507, 1499]
ch3 : [2920, 2921, 2913, 2923, 2922, 2924, 2919, 2922, 2920, 2924]
ch0 : [2602, 2343, 2637, 2638, 2642, 2624, 2516, 2617, 2640, 2646]
ch1 : [3114, 3106, 3091, 3098, 3099, 3101, 3105, 3097, 3106, 3112]
ch2 : [1490, 1504, 1509, 1511, 1510, 1504, 1506, 1505, 1489, 1493]
ch3 : [2921, 2921, 2924, 2925, 2921, 2915, 2920, 2921, 2922, 2923]
ch0 : [2646, 2464, 2319, 2429, 2621, 2622, 2638, 2627, 2452, 2567]
ch1 : [3097, 3099, 3103, 3099, 3099, 3100, 3101, 3112, 3102, 3092]
ch2 : [1506, 1508, 1501, 1505, 1506, 1505, 1499, 1486, 1501, 1504]
ch3 : [2922, 2923, 2922, 2922, 2925, 2924, 2923, 2920, 2921, 2926]
ch0 : [2511, 2594, 2583, 2559, 2539, 2623, 2592, 2551, 2617, 2594]
ch1 : [3093, 3092, 3104, 3105, 3097, 3099, 3110, 3090, 3094, 3096]
ch2 : [1509, 1489, 1503, 1503, 1503, 1495, 1490, 1506, 1505, 1504]
ch3 : [2926, 2929, 2921, 2923, 2918, 2920, 2924, 2928, 2928, 2926]
ch0 : [2547, 2622, 2497, 2617, 2472, 2336, 2604, 2613, 2612, 2611]
ch1 : [3095, 3097, 3100, 3101, 3109, 3106, 3095, 3094, 3097, 3103]
ch2 : [1505, 1504, 1505, 1505, 1488, 1498, 1507, 1505, 1500, 1500]
ch3 : [2924, 2924, 2925, 2925, 2919, 2923, 2927, 2922, 2926, 2922]
ch0 : [2613, 2569, 2558, 2491, 2604, 2606, 2557, 2471, 2468, 2604]
ch1 : [3103, 3102, 3111, 3118, 3103, 3101, 3102, 3107, 3112, 3109]
ch2 : [1487, 1499, 1490, 1486, 1495, 1502, 1506, 1503, 1499, 1495]
ch3 : [2923, 2927, 2919, 2925, 2923, 2924, 2923, 2924, 2912, 2923]
ch0 : [2622, 2581, 2165, 2346, 2501, 2597, 2584, 2493, 2580, 2603]
ch1 : [3108, 3120, 3116, 3107, 3117, 3110, 3120, 3115, 3119, 3122]
ch2 : [1502, 1482, 1491, 1507, 1508, 1499, 1497, 1492, 1503, 1484]
ch3 : [2928, 2928, 2924, 2927, 2926, 2922, 2926, 2934, 2924, 2928]
ch0 : [2607, 2452, 2572, 2601, 2551, 2413, 2401, 2589, 2607, 2302]
ch1 : [3127, 3122, 3126, 3123, 3127, 3129, 3118, 3131, 3137, 3139]
ch2 : [1481, 1496, 1501, 1499, 1498, 1497, 1499, 1494, 1482, 1490]
ch3 : [2927, 2925, 2929, 2929, 2924, 2926, 2926, 2922, 2921, 2924]
ch0 : [2407, 2492, 2534, 2503, 2546, 2570, 2596, 2482, 2335, 2384]
ch1 : [3144, 3134, 3136, 3144, 3142, 3146, 3148, 3149, 3142, 3142]
ch2 : [1501, 1501, 1498, 1494, 1496, 1499, 1488, 1486, 1498, 1503]
ch3 : [2915, 2926, 2919, 2924, 2919, 2923, 2923, 2922, 2918, 2927]
ch0 : [2576, 2580, 2567, 2544, 2527, 2496, 2090, 2462, 2559, 2515]
ch1 : [3152, 3144, 3148, 3149, 3147, 3155, 3169, 3141, 3136, 3148]
ch2 : [1497, 1499, 1495, 1498, 1500, 1480, 1492, 1503, 1504, 1499]
ch3 : [2925, 2925, 2922, 2913, 2923, 2918, 2919, 2926, 2925, 2929]
ch0 : [2530, 2535, 2580, 2577, 2477, 2389, 2482, 2502, 2578, 2565]
ch1 : [3150, 3148, 3152, 3155, 3159, 3153, 3155, 3153, 3157, 3159]
ch2 : [1499, 1495, 1497, 1488, 1484, 1500, 1502, 1501, 1499, 1501]
ch3 : [2932, 2922, 2919, 2920, 2920, 2924, 2917, 2923, 2923, 2923]
ch0 : [2503, 2369, 2407, 2226, 2557, 2555, 2547, 2541, 2461, 2514]
ch1 : [3162, 3165, 3169, 3165, 3150, 3150, 3160, 3157, 3165, 3164]
ch2 : [1496, 1487, 1483, 1487, 1505, 1515, 1499, 1497, 1495, 1512]
ch3 : [2927, 2918, 2920, 2921, 2923, 2924, 2925, 2915, 2911, 2919]
ch0 : [2223, 2383, 2550, 2508, 2553, 2345, 2529, 2571, 2561, 2339]
ch1 : [3172, 3156, 3157, 3164, 3164, 3170, 3170, 3169, 3172, 3162]
ch2 : [1483, 1501, 1503, 1502, 1500, 1495, 1495, 1494, 1480, 1494]
ch3 : [2922, 2929, 2924, 2925, 2923, 2921, 2921, 2925, 2932, 2923]
ch0 : [2401, 2524, 2546, 2436, 2540, 2509, 2553, 2240, 2412, 2451]
ch1 : [3161, 3166, 3159, 3172, 3169, 3172, 3173, 3176, 3160, 3159]
ch2 : [1503, 1503, 1501, 1501, 1500, 1495, 1484, 1484, 1501, 1507]
ch3 : [2922, 2925, 2924, 2922, 2925, 2929, 2921, 2924, 2921, 2924]
ch0 : [2526, 2547, 2466, 2485, 2550, 2501, 2339, 2458, 2475, 2505]
ch1 : [3154, 3168, 3168, 3172, 3166, 3155, 3167, 3163, 3163, 3166]
ch2 : [1500, 1500, 1502, 1503, 1482, 1486, 1497, 1515, 1504, 1502]
ch3 : [2926, 2922, 2923, 2919, 2925, 2920, 2921, 2920, 2920, 2921]
ch0 : [2488, 2455, 2428, 2541, 2384, 2364, 2473, 2497, 2527, 2461]
ch1 : [3168, 3173, 3171, 3165, 3168, 3156, 3170, 3156, 3176, 3170]
ch2 : [1500, 1502, 1499, 1486, 1484, 1504, 1504, 1502, 1499, 1498]
ch3 : [2919, 2925, 2920, 2920, 2920, 2912, 2918, 2922, 2924, 2921]
ch0 : [2465, 2540, 2495, 2310, 2445, 2480, 2484, 2491, 2472, 2420]
ch1 : [3167, 3179, 3167, 3164, 3160, 3159, 3163, 3165, 3168, 3166]
ch2 : [1496, 1500, 1485, 1496, 1502, 1506, 1502, 1493, 1495, 1498]
ch3 : [2919, 2922, 2919, 2919, 2923, 2921, 2926, 2911, 2923, 2922]
ch0 : [2541, 2427, 2374, 2467, 2490, 2522, 2483, 2493, 2540, 2497]
ch1 : [3169, 3166, 3148, 3159, 3162, 3159, 3167, 3164, 3171, 3170]
ch2 : [1482, 1481, 1505, 1506, 1501, 1500, 1500, 1501, 1497, 1487]
ch3 : [2919, 2922, 2919, 2925, 2924, 2920, 2913, 2918, 2922, 2920]
ch0 : [2323, 2467, 2499, 2501, 2518, 2483, 2455, 2532, 2465, 2394]
ch1 : [3167, 3161, 3163, 3164, 3166, 3170, 3164, 3171, 3176, 3163]
ch2 : [1501, 1506, 1503, 1502, 1504, 1495, 1503, 1490, 1491, 1507]
ch3 : [2920, 2924, 2920, 2921, 2919, 2920, 2919, 2920, 2920, 2921]
ch0 : [2502, 2521, 2543, 2506, 2490, 2539, 2543, 2322, 2464, 2486]
ch1 : [3158, 3168, 3164, 3171, 3169, 3157, 3176, 3168, 3169, 3165]
ch2 : [1508, 1504, 1503, 1503, 1503, 1501, 1493, 1503, 1508, 1507]
ch3 : [2912, 2917, 2924, 2920, 2918, 2925, 2917, 2925, 2920, 2924]
ch0 : [2497, 2518, 2462, 2444, 2555, 2503, 2355, 2490, 2525, 2551]
ch1 : [3177, 3167, 3174, 3174, 3170, 3169, 3160, 3143, 3165, 3164]
ch2 : [1512, 1506, 1503, 1505, 1499, 1492, 1507, 1514, 1509, 1506]
ch3 : [2920, 2922, 2917, 2920, 2921, 2921, 2919, 2923, 2929, 2920]
ch0 : [2504, 2501, 2558, 2568, 2338, 2475, 2534, 2530, 2549, 2511]
ch1 : [3168, 3170, 3169, 3169, 3169, 3161, 3169, 3169, 3169, 3172]
ch2 : [1503, 1504, 1503, 1485, 1509, 1513, 1507, 1504, 1504, 1499]
ch3 : [2913, 2917, 2920, 2916, 2920, 2923, 2922, 2920, 2919, 2922]
ch0 : [2495, 2566, 2574, 2393, 2514, 2543, 2562, 2524, 2517, 2566]
ch1 : [3172, 3171, 3171, 3160, 3163, 3163, 3167, 3165, 3172, 3173]
ch2 : [1503, 1494, 1488, 1504, 1507, 1506, 1508, 1502, 1503, 1499]
ch3 : [2921, 2919, 2921, 2921, 2921, 2924, 2922, 2921, 2915, 2920]
ch0 : [2573, 2330, 2509, 2536, 2515, 2551, 2515, 2498, 2574, 2474]
ch1 : [3173, 3168, 3161, 3165, 3170, 3173, 3172, 3174, 3177, 3172]
ch2 : [1491, 1491, 1507, 1506, 1506, 1504, 1503, 1503, 1496, 1491]
ch3 : [2922, 2920, 2923, 2922, 2921, 2921, 2919, 2933, 2916, 2919]
ch0 : [2348, 2498, 2519, 2569, 2523, 2492, 2529, 2564, 2359, 2460]
ch1 : [3167, 3161, 3167, 3171, 3170, 3171, 3170, 3178, 3180, 3165]
ch2 : [1504, 1505, 1507, 1506, 1510, 1503, 1498, 1493, 1495, 1506]
ch3 : [2919, 2922, 2925, 2923, 2919, 2919, 2922, 2920, 2915, 2923]
ch0 : [2513, 2509, 2535, 2483, 2500, 2570, 2498, 2326, 2474, 2506]
ch1 : [3166, 3167, 3167, 3176, 3174, 3170, 3173, 3160, 3155, 3168]
ch2 : [1508, 1506, 1505, 1504, 1510, 1496, 1491, 1504, 1510, 1513]
ch3 : [2912, 2924, 2920, 2919, 2921, 2920, 2920, 2925, 2922, 2923]
ch0 : [2566, 2518, 2487, 2497, 2556, 2408, 2459, 2515, 2503, 2529]
ch1 : [3167, 3168, 3172, 3168, 3164, 3167, 3159, 3158, 3159, 3165]
ch2 : [1505, 1505, 1503, 1508, 1494, 1499, 1511, 1505, 1525, 1505]
ch3 : [2922, 2923, 2921, 2920, 2921, 2922, 2924, 2924, 2923, 2922]
ch0 : [2503, 2489, 2570, 2515, 2321, 2488, 2516, 2557, 2539, 2490]
ch1 : [3168, 3171, 3170, 3170, 3161, 3157, 3160, 3161, 3162, 3162]
ch2 : [1505, 1505, 1498, 1490, 1504, 1508, 1508, 1507, 1505, 1511]
ch3 : [2928, 2930, 2921, 2919, 2921, 2927, 2928, 2924, 2918, 2924]
ch0 : [2494, 2562, 2470, 2454, 2511, 2511, 2520, 2502, 2501, 2562]
ch1 : [3166, 3170, 3167, 3159, 3156, 3159, 3161, 3166, 3162, 3169]
ch2 : [1505, 1494, 1495, 1519, 1512, 1507, 1504, 1509, 1503, 1500]
ch3 : [2921, 2920, 2924, 2925, 2923, 2922, 2921, 2928, 2930, 2933]
ch0 : [2524, 2302, 2446, 2520, 2551, 2528, 2484, 2487, 2565, 2504]
ch1 : [3161, 3145, 3152, 3150, 3165, 3157, 3160, 3161, 3165, 3164]
ch2 : [1488, 1504, 1509, 1511, 1504, 1500, 1502, 1507, 1493, 1491]
ch3 : [2914, 2929, 2925, 2923, 2925, 2926, 2924, 2922, 2922, 2925]
ch0 : [2447, 2518, 2511, 2531, 2516, 2513, 2563, 2522, 2310, 2494]
ch1 : [3162, 3154, 3157, 3158, 3161, 3163, 3170, 3165, 3156, 3151]
ch2 : [1503, 1512, 1493, 1506, 1502, 1502, 1498, 1491, 1501, 1502]
ch3 : [2927, 2925, 2924, 2922, 2924, 2926, 2925, 2919, 2922, 2929]
ch0 : [2529, 2533, 2550, 2515, 2499, 2570, 2562, 2454, 2523, 2537]
ch1 : [3147, 3155, 3161, 3158, 3155, 3166, 3163, 3154, 3150, 3147]
ch2 : [1505, 1517, 1503, 1505, 1502, 1495, 1492, 1504, 1509, 1503]
ch3 : [2930, 2937, 2920, 2919, 2932, 2922, 2922, 2921, 2927, 2924]
ch0 : [2561, 2565, 2521, 2571, 2572, 2297, 2484, 2540, 2551, 2570]
ch1 : [3155, 3158, 3159, 3155, 3165, 3146, 3147, 3153, 3153, 3161]
ch2 : [1502, 1505, 1507, 1498, 1486, 1495, 1502, 1496, 1505, 1502]
ch3 : [2924, 2925, 2914, 2928, 2921, 2920, 2926, 2926, 2920, 2921]
ch0 : [2581, 2583, 2282, 2479, 2540, 2557, 2575, 2517, 2514, 2583]
ch1 : [3164, 3162, 3161, 3151, 3153, 3160, 3166, 3162, 3159, 3163]
ch2 : [1493, 1482, 1495, 1500, 1503, 1502, 1504, 1487, 1502, 1495]
ch3 : [2925, 2921, 2923, 2927, 2926, 2929, 2926, 2914, 2923, 2925]
ch0 : [2566, 2445, 2538, 2540, 2568, 2548, 2507, 2583, 2558, 2285]
ch1 : [3164, 3161, 3155, 3159, 3161, 3165, 3163, 3160, 3162, 3159]
ch2 : [1486, 1502, 1508, 1505, 1503, 1500, 1504, 1501, 1490, 1513]
ch3 : [2924, 2921, 2925, 2927, 2928, 2923, 2918, 2922, 2925, 2921]
ch0 : [2478, 2541, 2555, 2568, 2537, 2517, 2586, 2539, 2430, 2548]
ch1 : [3155, 3151, 3160, 3164, 3167, 3167, 3170, 3167, 3160, 3156]
ch2 : [1506, 1506, 1508, 1516, 1502, 1502, 1494, 1490, 1481, 1511]
ch3 : [2929, 2926, 2926, 2925, 2924, 2920, 2924, 2923, 2926, 2923]
ch0 : [2558, 2575, 2556, 2517, 2541, 2585, 2263, 2486, 2558, 2564]
ch1 : [3160, 3162, 3170, 3168, 3165, 3168, 3165, 3157, 3156, 3160]
ch2 : [1509, 1506, 1506, 1506, 1505, 1489, 1493, 1507, 1509, 1501]
ch3 : [2926, 2924, 2925, 2923, 2926, 2929, 2923, 2927, 2932, 2925]
ch0 : [2563, 2534, 2534, 2589, 2582, 2431, 2547, 2556, 2575, 2563]
ch1 : [3161, 3164, 3164, 3167, 3168, 3172, 3152, 3164, 3173, 3167]
ch2 : [1502, 1498, 1502, 1494, 1487, 1497, 1511, 1504, 1503, 1504]
ch3 : [2918, 2925, 2925, 2928, 2928, 2928, 2927, 2926, 2927, 2926]
ch0 : [2528, 2507, 2572, 2283, 2471, 2551, 2560, 2581, 2528, 2534]
ch1 : [3156, 3167, 3165, 3162, 3157, 3164, 3156, 3159, 3165, 3160]
ch2 : [1501, 1502, 1492, 1489, 1506, 1506, 1503, 1501, 1500, 1508]
ch3 : [2932, 2929, 2925, 2923, 2926, 2927, 2932, 2922, 2927, 2927]
ch0 : [2594, 2576, 2415, 2539, 2563, 2577, 2556, 2525, 2490, 2562]
ch1 : [3166, 3167, 3157, 3153, 3157, 3161, 3163, 3160, 3163, 3164]
ch2 : [1495, 1488, 1502, 1504, 1505, 1503, 1503, 1507, 1502, 1475]
ch3 : [2930, 2941, 2918, 2923, 2928, 2927, 2921, 2926, 2928, 2927]
ch0 : [2338, 2471, 2539, 2571, 2585, 2535, 2551, 2592, 2592, 2412]
ch1 : [3164, 3149, 3147, 3158, 3151, 3161, 3161, 3161, 3164, 3157]
ch2 : [1489, 1512, 1511, 1503, 1498, 1502, 1503, 1495, 1490, 1508]
ch3 : [2926, 2929, 2931, 2929, 2929, 2924, 2927, 2925, 2925, 2931]
ch0 : [2541, 2556, 2580, 2570, 2530, 2509, 2597, 2435, 2464, 2554]
ch1 : [3135, 3151, 3151, 3159, 3163, 3161, 3164, 3155, 3137, 3146]
ch2 : [1504, 1508, 1506, 1507, 1503, 1505, 1491, 1490, 1509, 1512]
ch3 : [2925, 2925, 2917, 2927, 2929, 2929, 2927, 2929, 2927, 2932]
ch0 : [2579, 2548, 2519, 2599, 2492, 2457, 2551, 2570, 2587, 2556]
ch1 : [3157, 3157, 3164, 3164, 3159, 3149, 3143, 3160, 3151, 3160]
ch2 : [1507, 1509, 1507, 1494, 1489, 1509, 1511, 1509, 1504, 1506]
ch3 : [2931, 2926, 2930, 2926, 2928, 2927, 2936, 2928, 2930, 2924]
ch0 : [2574, 2601, 2597, 2385, 2539, 2563, 2580, 2573, 2540, 2503]
ch1 : [3158, 3160, 3158, 3155, 3152, 3151, 3157, 3157, 3160, 3160]
ch2 : [1500, 1500, 1479, 1501, 1510, 1507, 1507, 1504, 1505, 1505]
ch3 : [2924, 2928, 2930, 2931, 2928, 2929, 2932, 2927, 2936, 2928]
ch0 : [2599, 2605, 2445, 2532, 2575, 2590, 2542, 2554, 2600, 2601]
ch1 : [3164, 3161, 3147, 3154, 3157, 3160, 3157, 3158, 3155, 3163]
ch2 : [1493, 1489, 1508, 1511, 1509, 1504, 1507, 1506, 1508, 1489]
ch3 : [2930, 2932, 2930, 2935, 2933, 2930, 2927, 2926, 2931, 2929]
ch0 : [2389, 2533, 2567, 2562, 2575, 2544, 2514, 2598, 2569, 2442]
ch1 : [3162, 3150, 3153, 3158, 3159, 3159, 3162, 3162, 3164, 3152]
ch2 : [1500, 1510, 1510, 1506, 1509, 1509, 1507, 1501, 1491, 1509]
ch3 : [2930, 2928, 2936, 2932, 2930, 2929, 2936, 2927, 2924, 2931]
ch0 : [2555, 2574, 2592, 2555, 2557, 2605, 2603, 2360, 2524, 2575]
ch1 : [3147, 3156, 3161, 3160, 3162, 3164, 3164, 3153, 3153, 3147]
ch2 : [1512, 1511, 1507, 1513, 1505, 1504, 1493, 1499, 1511, 1516]
ch3 : [2928, 2930, 2930, 2927, 2931, 2931, 2932, 2933, 2927, 2935]
ch0 : [2561, 2589, 2548, 2519, 2607, 2576, 2430, 2547, 2576, 2584]
ch1 : [3155, 3157, 3162, 3161, 3158, 3162, 3160, 3147, 3151, 3152]
ch2 : [1503, 1508, 1507, 1507, 1494, 1487, 1511, 1515, 1510, 1509]
ch3 : [2930, 2932, 2931, 2930, 2928, 2932, 2930, 2934, 2933, 2934]
ch0 : [2577, 2554, 2599, 2591, 2371, 2534, 2570, 2573, 2592, 2559]
ch1 : [3161, 3156, 3161, 3155, 3159, 3153, 3151, 3154, 3157, 3156]
ch2 : [1511, 1501, 1509, 1509, 1499, 1511, 1511, 1508, 1503, 1512]
ch3 : [2929, 2932, 2932, 2930, 2927, 2932, 2934, 2931, 2930, 2931]
ch0 : [2518, 2597, 2555, 2427, 2544, 2568, 2596, 2591, 2553, 2598]
ch1 : [3159, 3165, 3155, 3146, 3143, 3156, 3152, 3159, 3156, 3164]
ch2 : [1508, 1498, 1490, 1508, 1512, 1516, 1507, 1507, 1507, 1508]
ch3 : [2931, 2929, 2929, 2936, 2929, 2940, 2933, 2926, 2923, 2929]
ch0 : [2603, 2368, 2532, 2573, 2585, 2587, 2563, 2546, 2622, 2605]
ch1 : [3157, 3160, 3152, 3155, 3156, 3163, 3158, 3159, 3163, 3161]
ch2 : [1495, 1498, 1510, 1517, 1510, 1510, 1520, 1510, 1502, 1487]
ch3 : [2925, 2927, 2932, 2929, 2932, 2928, 2932, 2929, 2931, 2927]
ch0 : [2413, 2542, 2584, 2603, 2591, 2550, 2597, 2606, 2420, 2513]
ch1 : [3149, 3148, 3163, 3154, 3156, 3156, 3160, 3161, 3161, 3150]
ch2 : [1509, 1515, 1511, 1513, 1513, 1509, 1510, 1497, 1500, 1512]
ch3 : [2931, 2933, 2934, 2933, 2929, 2933, 2932, 2931, 2930, 2931]
ch0 : [2608, 2577, 2549, 2549, 2612, 2493, 2530, 2569, 2562, 2596]
ch1 : [3145, 3156, 3156, 3158, 3151, 3160, 3151, 3147, 3149, 3151]
ch2 : [1512, 1507, 1511, 1504, 1491, 1500, 1511, 1512, 1511, 1511]
ch3 : [2935, 2928, 2929, 2932, 2930, 2932, 2926, 2930, 2932, 2929]
ch0 : [2571, 2559, 2597, 2587, 2373, 2547, 2587, 2608, 2589, 2561]
ch1 : [3153, 3156, 3152, 3156, 3148, 3142, 3143, 3143, 3149, 3150]
ch2 : [1509, 1508, 1500, 1496, 1506, 1518, 1512, 1510, 1508, 1512]
ch3 : [2923, 2936, 2932, 2930, 2934, 2934, 2932, 2944, 2928, 2930]
ch0 : [2576, 2612, 2519, 2504, 2607, 2583, 2606, 2576, 2587, 2617]
ch1 : [3152, 3157, 3155, 3149, 3144, 3142, 3149, 3158, 3149, 3154]
ch2 : [1510, 1497, 1491, 1511, 1515, 1509, 1510, 1513, 1507, 1505]
ch3 : [2932, 2930, 2932, 2938, 2930, 2925, 2928, 2932, 2930, 2933]
ch0 : [2613, 2367, 2539, 2583, 2617, 2606, 2575, 2562, 2602, 2573]
ch1 : [3153, 3148, 3145, 3146, 3139, 3152, 3146, 3145, 3154, 3150]
ch2 : [1477, 1507, 1497, 1510, 1504, 1508, 1510, 1506, 1501, 1496]
ch3 : [2932, 2930, 2933, 2933, 2927, 2927, 2930, 2930, 2930, 2946]
ch0 : [2514, 2577, 2571, 2597, 2572, 2556, 2614, 2612, 2357, 2531]
ch1 : [3147, 3146, 3146, 3157, 3147, 3152, 3163, 3156, 3151, 3147]
ch2 : [1512, 1514, 1513, 1509, 1507, 1508, 1503, 1490, 1509, 1512]
ch3 : [2932, 2930, 2932, 2924, 2930, 2933, 2926, 2931, 2928, 2936]
ch0 : [2576, 2594, 2601, 2556, 2552, 2610, 2610, 2485, 2574, 2588]
ch1 : [3143, 3144, 3152, 3151, 3151, 3156, 3155, 3149, 3149, 3153]
ch2 : [1509, 1509, 1508, 1509, 1502, 1499, 1497, 1510, 1511, 1510]
ch3 : [2938, 2934, 2929, 2931, 2930, 2931, 2937, 2935, 2932, 2932]
ch0 : [2602, 2599, 2575, 2612, 2609, 2325, 2521, 2584, 2591, 2605]
ch1 : [3148, 3166, 3155, 3149, 3158, 3152, 3144, 3138, 3154, 3157]
ch2 : [1507, 1507, 1508, 1521, 1491, 1503, 1524, 1511, 1511, 1507]
ch3 : [2933, 2932, 2935, 2932, 2940, 2931, 2934, 2933, 2934, 2928]
ch0 : [2568, 2566, 2614, 2603, 2485, 2576, 2580, 2608, 2582, 2568]
ch1 : [3156, 3162, 3150, 3155, 3147, 3147, 3151, 3145, 3156, 3159]
ch2 : [1501, 1504, 1500, 1498, 1508, 1510, 1510, 1507, 1522, 1504]
ch3 : [2933, 2929, 2935, 2934, 2932, 2928, 2934, 2931, 2932, 2935]
ch0 : [2612, 2617, 2326, 2536, 2579, 2602, 2610, 2567, 2572, 2616]
ch1 : [3154, 3160, 3156, 3143, 3149, 3161, 3154, 3155, 3154, 3146]
ch2 : [1509, 1491, 1504, 1512, 1512, 1507, 1509, 1502, 1495, 1496]
ch3 : [2932, 2931, 2933, 2937, 2936, 2936, 2930, 2930, 2931, 2936]
ch0 : [2612, 2494, 2577, 2586, 2603, 2591, 2562, 2607, 2603, 2312]
ch1 : [3144, 3149, 3151, 3156, 3156, 3151, 3161, 3158, 3162, 3158]
ch2 : [1496, 1507, 1518, 1510, 1510, 1504, 1506, 1512, 1492, 1501]
ch3 : [2932, 2931, 2943, 2934, 2934, 2932, 2931, 2934, 2933, 2931]
ch0 : [2523, 2594, 2594, 2594, 2573, 2565, 2618, 2611, 2482, 2587]
ch1 : [3150, 3146, 3149, 3154, 3166, 3156, 3160, 3154, 3162, 3142]
ch2 : [1513, 1516, 1506, 1493, 1506, 1510, 1497, 1494, 1507, 1514]
ch3 : [2931, 2935, 2936, 2926, 2927, 2932, 2933, 2937, 2933, 2935]
ch0 : [2587, 2611, 2585, 2572, 2567, 2621, 2295, 2520, 2594, 2608]
ch1 : [3135, 3138, 3149, 3151, 3154, 3157, 3150, 3131, 3143, 3139]
ch2 : [1506, 1509, 1507, 1508, 1510, 1492, 1500, 1510, 1503, 1506]
ch3 : [2934, 2936, 2935, 2936, 2935, 2932, 2935, 2925, 2936, 2934]
ch0 : [2615, 2585, 2578, 2621, 2621, 2478, 2588, 2599, 2615, 2612]
ch1 : [3143, 3153, 3151, 3161, 3154, 3145, 3142, 3143, 3140, 3144]
ch2 : [1521, 1507, 1505, 1486, 1493, 1504, 1510, 1510, 1508, 1507]
ch3 : [2926, 2927, 2932, 2938, 2933, 2938, 2933, 2933, 2931, 2929]
ch0 : [2555, 2543, 2620, 2309, 2528, 2591, 2614, 2615, 2571, 2589]
ch1 : [3147, 3142, 3152, 3154, 3140, 3136, 3140, 3155, 3147, 3143]
ch2 : [1507, 1506, 1490, 1496, 1512, 1525, 1520, 1507, 1509, 1507]
ch3 : [2933, 2935, 2933, 2929, 2936, 2936, 2939, 2930, 2932, 2936]
ch0 : [2620, 2617, 2460, 2589, 2596, 2614, 2610, 2586, 2546, 2627]
ch1 : [3150, 3147, 3145, 3137, 3137, 3142, 3144, 3150, 3147, 3152]
ch2 : [1499, 1489, 1507, 1514, 1515, 1515, 1508, 1516, 1514, 1503]
ch3 : [2931, 2922, 2934, 2940, 2936, 2936, 2933, 2935, 2938, 2932]
ch0 : [2392, 2519, 2584, 2598, 2630, 2581, 2584, 2621, 2627, 2456]
ch1 : [3153, 3139, 3138, 3142, 3151, 3152, 3149, 3154, 3155, 3151]
ch2 : [1501, 1516, 1517, 1515, 1515, 1518, 1511, 1510, 1506, 1514]
ch3 : [2930, 2936, 2935, 2937, 2930, 2925, 2936, 2934, 2934, 2936]
ch0 : [2576, 2602, 2613, 2599, 2556, 2546, 2623, 2434, 2499, 2588]
ch1 : [3146, 3143, 3145, 3145, 3152, 3145, 3152, 3148, 3145, 3139]
ch2 : [1518, 1518, 1532, 1516, 1516, 1516, 1505, 1502, 1522, 1523]
ch3 : [2936, 2935, 2938, 2936, 2936, 2928, 2931, 2931, 2938, 2933]
ch0 : [2609, 2615, 2571, 2601, 2621, 2619, 2440, 2574, 2594, 2610]
ch1 : [3140, 3147, 3163, 3147, 3162, 3153, 3151, 3142, 3145, 3142]
ch2 : [1519, 1510, 1518, 1521, 1506, 1506, 1515, 1520, 1521, 1522]
ch3 : [2940, 2931, 2930, 2931, 2922, 2934, 2934, 2937, 2927, 2926]
ch0 : [2610, 2565, 2539, 2615, 2523, 2483, 2578, 2603, 2614, 2588]
ch1 : [3150, 3150, 3152, 3154, 3156, 3142, 3142, 3143, 3152, 3154]
ch2 : [1517, 1514, 1516, 1504, 1505, 1519, 1518, 1518, 1518, 1515]
ch3 : [2932, 2933, 2936, 2931, 2940, 2936, 2931, 2935, 2936, 2933]
ch0 : [2587, 2621, 2599, 2420, 2553, 2604, 2610, 2608, 2565, 2533]
ch1 : [3152, 3153, 3155, 3149, 3146, 3140, 3149, 3151, 3153, 3153]
ch2 : [1512, 1505, 1500, 1511, 1519, 1516, 1515, 1515, 1512, 1507]
ch3 : [2942, 2928, 2936, 2935, 2935, 2937, 2936, 2932, 2930, 2934]
ch0 : [2619, 2475, 2472, 2559, 2599, 2607, 2564, 2602, 2614, 2619]
ch1 : [3159, 3160, 3152, 3144, 3147, 3149, 3155, 3157, 3154, 3160]
ch2 : [1497, 1500, 1515, 1520, 1514, 1509, 1508, 1511, 1510, 1495]
ch3 : [2931, 2936, 2933, 2941, 2935, 2936, 2935, 2929, 2934, 2932]
ch0 : [2418, 2572, 2588, 2586, 2604, 2580, 2546, 2620, 2587, 2478]
ch1 : [3153, 3149, 3147, 3151, 3157, 3155, 3146, 3160, 3159, 3149]
ch2 : [1503, 1512, 1514, 1516, 1511, 1508, 1510, 1500, 1497, 1511]
ch3 : [2926, 2938, 2933, 2935, 2931, 2932, 2937, 2933, 2933, 2936]
ch0 : [2601, 2571, 2601, 2597, 2598, 2619, 2628, 2397, 2558, 2597]
ch1 : [3143, 3148, 3151, 3155, 3151, 3154, 3158, 3153, 3147, 3143]
ch2 : [1509, 1508, 1509, 1507, 1507, 1505, 1500, 1503, 1525, 1516]
ch3 : [2946, 2940, 2933, 2929, 2934, 2931, 2934, 2936, 2935, 2936]
ch0 : [2585, 2605, 2573, 2568, 2623, 2599, 2439, 2568, 2604, 2616]
ch1 : [3149, 3151, 3150, 3154, 3156, 3155, 3144, 3145, 3146, 3152]
ch2 : [1513, 1508, 1503, 1509, 1516, 1497, 1513, 1514, 1507, 1506]
ch3 : [2934, 2932, 2934, 2934, 2936, 2932, 2934, 2933, 2935, 2932]
ch0 : [2567, 2626, 2619, 2431, 2580, 2601, 2615, 2611, 2582, 2616]
ch1 : [3153, 3163, 3153, 3144, 3145, 3148, 3152, 3153, 3152, 3152]
ch2 : [1504, 1502, 1490, 1511, 1514, 1513, 1508, 1502, 1511, 1512]
ch3 : [2933, 2932, 2930, 2932, 2934, 2927, 2931, 2930, 2931, 2932]
ch0 : [2621, 2359, 2552, 2613, 2605, 2586, 2569, 2573, 2624, 2570]
ch1 : [3150, 3156, 3145, 3156, 3149, 3148, 3156, 3151, 3159, 3159]
ch2 : [1494, 1506, 1512, 1510, 1506, 1513, 1513, 1511, 1499, 1491]
ch3 : [2932, 2934, 2935, 2935, 2931, 2933, 2929, 2936, 2930, 2931]
ch0 : [2406, 2565, 2620, 2622, 2629, 2612, 2618, 2628, 2439, 2607]
ch1 : [3143, 3143, 3145, 3152, 3153, 3155, 3147, 3154, 3155, 3145]
ch2 : [1510, 1518, 1512, 1509, 1509, 1525, 1501, 1497, 1500, 1510]
ch3 : [2931, 2930, 2929, 2927, 2927, 2930, 2924, 2933, 2934, 2931]
ch0 : [2624, 2589, 2623, 2640, 2641, 2639, 2497, 2346, 2617, 2633]
ch1 : [3139, 3149, 3157, 3157, 3154, 3156, 3158, 3151, 3147, 3147]
ch2 : [1510, 1515, 1510, 1510, 1508, 1496, 1495, 1516, 1514, 1511]
ch3 : [2931, 2930, 2927, 2928, 2927, 2925, 2927, 2931, 2932, 2931]
ch0 : [2643, 2602, 2545, 2539, 2635, 2467, 2632, 2584, 2572, 2633]
ch1 : [3149, 3156, 3151, 3156, 3158, 3159, 3163, 3164, 3157, 3161]
ch2 : [1510, 1520, 1499, 1508, 1495, 1497, 1510, 1516, 1510, 1508]
ch3 : [2928, 2926, 2924, 2924, 2926, 2928, 2930, 2929, 2927, 2923]
ch0 : [2575, 2574, 2629, 2560, 2485, 2626, 2633, 2642, 2352, 2544]
ch1 : [3161, 3163, 3166, 3166, 3153, 3151, 3158, 3157, 3166, 3167]
ch2 : [1503, 1503, 1499, 1493, 1507, 1514, 1509, 1508, 1507, 1512]
ch3 : [2925, 2927, 2925, 2925, 2928, 2931, 2925, 2929, 2924, 2920]
ch0 : [2615, 2640, 2573, 2632, 2552, 2351, 2436, 2554, 2567, 2627]
ch1 : [3168, 3169, 3167, 3161, 3164, 3178, 3167, 3168, 3173, 3171]
ch2 : [1508, 1504, 1494, 1510, 1512, 1508, 1507, 1511, 1508, 1507]
ch3 : [2921, 2927, 2930, 2927, 2934, 2929, 2925, 2926, 2924, 2926]
ch0 : [2613, 2336, 2488, 2586, 2612, 2607, 2523, 2383, 2540, 2604]
ch1 : [3168, 3164, 3164, 3160, 3164, 3171, 3168, 3176, 3173, 3171]
ch2 : [1495, 1492, 1513, 1497, 1494, 1510, 1496, 1510, 1496, 1498]
ch3 : [2916, 2924, 2929, 2930, 2932, 2924, 2927, 2924, 2927, 2927]
ch0 : [2609, 2625, 2632, 2474, 2389, 2576, 2619, 2537, 2363, 2571]
ch1 : [3164, 3161, 3164, 3171, 3172, 3173, 3172, 3169, 3161, 3155]
ch2 : [1514, 1513, 1514, 1511, 1505, 1507, 1505, 1491, 1510, 1512]
ch3 : [2930, 2928, 2930, 2927, 2927, 2927, 2928, 2931, 2932, 2929]
ch0 : [2444, 2514, 2603, 2609, 2577, 2570, 2567, 2463, 2560, 2594]
ch1 : [3164, 3151, 3168, 3167, 3168, 3180, 3172, 3155, 3165, 3164]
ch2 : [1508, 1507, 1508, 1503, 1505, 1496, 1494, 1508, 1511, 1509]
ch3 : [2932, 2929, 2930, 2928, 2930, 2933, 2933, 2920, 2924, 2933]
ch0 : [2602, 2603, 2606, 2612, 2548, 2215, 2375, 2520, 2597, 2604]
ch1 : [3168, 3174, 3176, 3174, 3172, 3166, 3158, 3158, 3165, 3169]
ch2 : [1508, 1511, 1511, 1504, 1492, 1503, 1509, 1513, 1507, 1507]
ch3 : [2917, 2929, 2926, 2927, 2929, 2922, 2923, 2936, 2931, 2926]
ch0 : [2604, 2596, 2566, 2486, 2318, 2551, 2535, 2591, 2566, 2595]
ch1 : [3160, 3176, 3172, 3171, 3163, 3162, 3165, 3169, 3176, 3178]
ch2 : [1503, 1507, 1497, 1493, 1504, 1509, 1505, 1513, 1507, 1503]
ch3 : [2925, 2927, 2924, 2927, 2932, 2927, 2926, 2926, 2927, 2929]
ch0 : [2599, 2492, 2098, 2489, 2586, 2586, 2593, 2420, 2460, 2588]
ch1 : [3177, 3173, 3171, 3161, 3161, 3162, 3172, 3171, 3171, 3167]
ch2 : [1503, 1487, 1489, 1509, 1509, 1507, 1502, 1505, 1503, 1495]
ch3 : [2919, 2923, 2927, 2932, 2928, 2927, 2927, 2926, 2928, 2927]
ch0 : [2495, 2539, 2583, 2533, 2437, 2474, 2399, 2593, 2504, 2198]
ch1 : [3168, 3160, 3175, 3166, 3171, 3169, 3178, 3176, 3171, 3169]
ch2 : [1494, 1506, 1509, 1510, 1506, 1502, 1500, 1501, 1489, 1500]
ch3 : [2928, 2932, 2928, 2928, 2932, 2927, 2931, 2929, 2931, 2929]
ch0 : [2535, 2517, 2439, 2572, 2483, 2499, 2575, 2561, 2336, 2431]
ch1 : [3164, 3164, 3171, 3162, 3174, 3173, 3175, 3168, 3171, 3169]
ch2 : [1508, 1507, 1499, 1502, 1499, 1502, 1492, 1483, 1500, 1505]
ch3 : [2928, 2936, 2938, 2920, 2928, 2927, 2926, 2927, 2928, 2928]
ch0 : [2520, 2559, 2518, 2470, 2410, 2573, 2244, 2440, 2483, 2519]
ch1 : [3169, 3171, 3175, 3180, 3173, 3174, 3176, 3160, 3167, 3169]
ch2 : [1486, 1507, 1501, 1505, 1501, 1471, 1491, 1511, 1508, 1502]
ch3 : [2927, 2916, 2925, 2928, 2925, 2922, 2926, 2936, 2930, 2927]
ch0 : [2556, 2564, 2538, 2578, 2471, 2066, 2407, 2507, 2555, 2554]
ch1 : [3174, 3176, 3174, 3175, 3180, 3173, 3163, 3170, 3172, 3179]
ch2 : [1499, 1501, 1502, 1485, 1486, 1501, 1504, 1509, 1513, 1499]
ch3 : [2926, 2924, 2922, 2924, 2922, 2930, 2940, 2927, 2925, 2924]
ch0 : [2545, 2419, 2484, 2237, 2353, 2514, 2551, 2503, 2462, 2496]
ch1 : [3176, 3177, 3175, 3174, 3168, 3168, 3166, 3179, 3174, 3177]
ch2 : [1498, 1499, 1489, 1491, 1501, 1505, 1500, 1500, 1491, 1499]
ch3 : [2925, 2931, 2923, 2923, 2926, 2929, 2941, 2921, 2926, 2922]
ch0 : [2556, 2505, 2403, 2534, 2536, 2542, 2504, 2489, 2468, 2523]
ch1 : [3177, 3175, 3171, 3169, 3172, 3174, 3176, 3176, 3179, 3175]
ch2 : [1491, 1484, 1498, 1500, 1502, 1499, 1497, 1500, 1499, 1480]
ch3 : [2926, 2924, 2926, 2929, 2924, 2926, 2923, 2925, 2920, 2922]
ch0 : [2110, 2368, 2541, 2543, 2477, 2492, 2457, 2550, 2492, 2357]
ch1 : [3167, 3172, 3168, 3170, 3178, 3180, 3181, 3181, 3179, 3173]
ch2 : [1486, 1503, 1498, 1500, 1496, 1495, 1499, 1493, 1487, 1496]
ch3 : [2919, 2913, 2928, 2928, 2925, 2922, 2924, 2925, 2929, 2927]
ch0 : [2495, 2491, 2511, 2484, 2451, 2444, 2547, 2322, 2408, 2476]
ch1 : [3165, 3175, 3177, 3183, 3180, 3178, 3181, 3179, 3169, 3168]
ch2 : [1497, 1500, 1500, 1498, 1502, 1496, 1491, 1482, 1507, 1502]
ch3 : [2926, 2929, 2927, 2922, 2927, 2926, 2924, 2934, 2924, 2927]
ch0 : [2513, 2537, 2498, 2483, 2550, 2527, 2337, 2519, 2499, 2486]
ch1 : [3163, 3166, 3179, 3180, 3174, 3180, 3171, 3174, 3175, 3180]
ch2 : [1501, 1502, 1498, 1501, 1488, 1489, 1496, 1502, 1503, 1503]
ch3 : [2929, 2925, 2921, 2927, 2924, 2923, 2930, 2929, 2925, 2925]
ch0 : [2502, 2471, 2446, 2553, 2415, 2392, 2483, 2507, 2544, 2492]
ch1 : [3169, 3180, 3192, 3180, 3171, 3170, 3178, 3176, 3179, 3180]
ch2 : [1502, 1497, 1496, 1487, 1485, 1498, 1503, 1497, 1493, 1496]
ch3 : [2926, 2916, 2924, 2925, 2923, 2922, 2928, 2927, 2924, 2922]
ch0 : [2511, 2552, 2501, 2334, 2482, 2510, 2529, 2543, 2453, 2448]
ch1 : [3182, 3184, 3183, 3175, 3174, 3171, 3181, 3184, 3179, 3187]
ch2 : [1497, 1488, 1485, 1493, 1501, 1498, 1505, 1500, 1498, 1502]
ch3 : [2922, 2924, 2921, 2927, 2924, 2922, 2923, 2926, 2923, 2924]
ch0 : [2553, 2458, 2409, 2498, 2512, 2546, 2502, 2502, 2558, 2536]
ch1 : [3180, 3175, 3170, 3183, 3177, 3183, 3181, 3182, 3181, 3183]
ch2 : [1488, 1483, 1500, 1503, 1500, 1500, 1498, 1491, 1497, 1487]
ch3 : [2915, 2924, 2928, 2924, 2926, 2924, 2922, 2924, 2925, 2929]
ch0 : [2334, 2464, 2490, 2492, 2506, 2488, 2446, 2557, 2536, 2362]
ch1 : [3176, 3176, 3175, 3179, 3183, 3185, 3183, 3181, 3181, 3170]
ch2 : [1493, 1502, 1506, 1502, 1501, 1511, 1500, 1487, 1486, 1503]
ch3 : [2925, 2926, 2927, 2929, 2928, 2925, 2927, 2923, 2926, 2927]
ch0 : [2505, 2523, 2494, 2469, 2561, 2514, 2398, 2512, 2532, 2559]
ch1 : [3181, 3176, 3183, 3179, 3195, 3176, 3163, 3173, 3177, 3181]
ch2 : [1502, 1498, 1499, 1498, 1489, 1497, 1500, 1512, 1504, 1500]
ch3 : [2927, 2929, 2914, 2929, 2923, 2926, 2927, 2914, 2927, 2925]
ch0 : [2520, 2507, 2562, 2563, 2344, 2495, 2523, 2520, 2557, 2488]
ch1 : [3181, 3179, 3184, 3180, 3184, 3178, 3176, 3183, 3179, 3182]
ch2 : [1501, 1503, 1498, 1486, 1494, 1504, 1511, 1499, 1500, 1514]
ch3 : [2921, 2921, 2926, 2929, 2925, 2929, 2927, 2928, 2927, 2930]
ch0 : [2494, 2569, 2499, 2368, 2516, 2540, 2567, 2541, 2515, 2562]
ch1 : [3168, 3183, 3176, 3175, 3172, 3179, 3178, 3178, 3181, 3182]
ch2 : [1515, 1491, 1486, 1500, 1503, 1503, 1503, 1498, 1500, 1506]
ch3 : [2928, 2927, 2923, 2924, 2930, 2929, 2924, 2928, 2923, 2926]
ch0 : [2569, 2327, 2491, 2529, 2531, 2553, 2520, 2488, 2572, 2516]
ch1 : [3179, 3177, 3170, 3175, 3177, 3180, 3181, 3182, 3185, 3179]
ch2 : [1489, 1493, 1506, 1507, 1503, 1505, 1502, 1502, 1491, 1483]
ch3 : [2926, 2925, 2928, 2929, 2927, 2939, 2932, 2929, 2927, 2922]
ch0 : [2364, 2503, 2535, 2568, 2547, 2508, 2569, 2569, 2311, 2479]
ch1 : [3166, 3167, 3174, 3176, 3177, 3181, 3177, 3178, 3178, 3172]
ch2 : [1504, 1503, 1494, 1505, 1501, 1501, 1505, 1487, 1491, 1504]
ch3 : [2926, 2932, 2933, 2930, 2924, 2926, 2927, 2923, 2937, 2927]
ch0 : [2516, 2520, 2541, 2496, 2467, 2577, 2535, 2340, 2492, 2514]
ch1 : [3174, 3176, 3177, 3182, 3179, 3181, 3170, 3166, 3167, 3168]
ch2 : [1506, 1508, 1499, 1502, 1504, 1480, 1489, 1503, 1510, 1509]
ch3 : [2927, 2927, 2925, 2926, 2929, 2925, 2924, 2929, 2927, 2930]
ch0 : [2569, 2515, 2507, 2532, 2578, 2390, 2460, 2519, 2528, 2543]
ch1 : [3172, 3175, 3176, 3178, 3186, 3176, 3170, 3171, 3172, 3177]
ch2 : [1507, 1511, 1509, 1499, 1492, 1489, 1511, 1508, 1506, 1505]
ch3 : [2927, 2924, 2923, 2927, 2923, 2926, 2927, 2929, 2928, 2926]
ch0 : [2516, 2491, 2568, 2505, 2343, 2494, 2528, 2559, 2536, 2519]
ch1 : [3177, 3180, 3182, 3175, 3168, 3165, 3173, 3172, 3171, 3180]
ch2 : [1510, 1503, 1496, 1486, 1503, 1512, 1507, 1512, 1496, 1508]
ch3 : [2925, 2926, 2925, 2925, 2925, 2932, 2927, 2929, 2922, 2924]
ch0 : [2531, 2571, 2450, 2466, 2526, 2533, 2533, 2517, 2517, 2581]
ch1 : [3180, 3175, 3171, 3166, 3170, 3175, 3174, 3180, 3175, 3179]
ch2 : [1507, 1488, 1490, 1505, 1508, 1508, 1503, 1499, 1504, 1498]
ch3 : [2922, 2927, 2933, 2929, 2928, 2928, 2928, 2926, 2928, 2925]
ch0 : [2552, 2323, 2511, 2560, 2568, 2556, 2524, 2510, 2555, 2484]
ch1 : [3175, 3170, 3165, 3166, 3173, 3177, 3174, 3177, 3176, 3177]
ch2 : [1480, 1503, 1507, 1503, 1505, 1498, 1505, 1497, 1490, 1488]
ch3 : [2925, 2926, 2926, 2929, 2927, 2919, 2922, 2926, 2927, 2926]
ch0 : [2493, 2550, 2539, 2567, 2522, 2534, 2584, 2523, 2336, 2509]
ch1 : [3170, 3167, 3176, 3176, 3178, 3178, 3180, 3177, 3183, 3153]
ch2 : [1503, 1508, 1500, 1500, 1503, 1499, 1496, 1485, 1496, 1504]
ch3 : [2936, 2930, 2926, 2924, 2926, 2926, 2926, 2924, 2926, 2927]
ch0 : [2561, 2575, 2576, 2535, 2534, 2586, 2511, 2483, 2556, 2557]
ch1 : [3173, 3173, 3179, 3176, 3178, 3179, 3186, 3169, 3173, 3173]
ch2 : [1508, 1501, 1499, 1497, 1503, 1486, 1484, 1487, 1505, 1504]
ch3 : [2939, 2925, 2926, 2924, 2925, 2928, 2926, 2926, 2923, 2920]
ch0 : [2565, 2535, 2562, 2593, 2579, 2313, 2480, 2543, 2580, 2562]
ch1 : [3174, 3174, 3181, 3181, 3179, 3171, 3168, 3173, 3177, 3177]
ch2 : [1497, 1507, 1499, 1499, 1501, 1497, 1504, 1503, 1501, 1490]
ch3 : [2925, 2928, 2936, 2926, 2927, 2923, 2927, 2931, 2926, 2923]
ch0 : [2495, 2482, 2585, 2581, 2477, 2562, 2539, 2564, 2526, 2504]
ch1 : [3179, 3177, 3178, 3167, 3163, 3173, 3171, 3177, 3178, 3180]
ch2 : [1498, 1499, 1491, 1491, 1500, 1503, 1502, 1499, 1504, 1499]
ch3 : [2923, 2927, 2924, 2926, 2930, 2923, 2919, 2923, 2929, 2926]
ch0 : [2579, 2568, 2311, 2516, 2560, 2566, 2571, 2545, 2522, 2592]
ch1 : [3179, 3178, 3173, 3164, 3167, 3177, 3176, 3175, 3177, 3181]
ch2 : [1496, 1487, 1491, 1507, 1502, 1502, 1497, 1501, 1495, 1489]
ch3 : [2927, 2925, 2926, 2926, 2932, 2927, 2926, 2920, 2926, 2929]
ch0 : [2580, 2468, 2547, 2555, 2580, 2564, 2562, 2590, 2600, 2299]
ch1 : [3183, 3173, 3170, 3176, 3189, 3181, 3170, 3177, 3178, 3173]
ch2 : [1489, 1502, 1502, 1504, 1500, 1484, 1501, 1500, 1484, 1480]
ch3 : [2931, 2929, 2926, 2929, 2927, 2924, 2929, 2930, 2930, 2926]
ch0 : [2502, 2559, 2586, 2593, 2558, 2558, 2599, 2596, 2443, 2544]
ch1 : [3165, 3166, 3167, 3176, 3176, 3177, 3176, 3176, 3169, 3164]
ch2 : [1507, 1503, 1502, 1501, 1507, 1499, 1495, 1487, 1500, 1507]
ch3 : [2932, 2933, 2932, 2928, 2923, 2927, 2913, 2930, 2928, 2932]
ch0 : [2568, 2591, 2575, 2559, 2594, 2600, 2274, 2491, 2572, 2580]
ch1 : [3172, 3173, 3174, 3186, 3176, 3170, 3172, 3162, 3165, 3166]
ch2 : [1504, 1502, 1495, 1500, 1503, 1482, 1497, 1504, 1509, 1515]
ch3 : [2931, 2929, 2929, 2925, 2932, 2926, 2928, 2930, 2932, 2932]
ch0 : [2592, 2566, 2541, 2600, 2601, 2448, 2563, 2575, 2581, 2584]
ch1 : [3170, 3170, 3176, 3175, 3171, 3164, 3166, 3161, 3168, 3172]
ch2 : [1501, 1484, 1501, 1494, 1490, 1484, 1519, 1505, 1502, 1505]
ch3 : [2928, 2929, 2927, 2929, 2930, 2932, 2932, 2929, 2933, 2928]
ch0 : [2532, 2595, 2601, 2271, 2496, 2564, 2567, 2596, 2529, 2541]
ch1 : [3179, 3174, 3176, 3168, 3161, 3168, 3167, 3172, 3175, 3174]
ch2 : [1499, 1498, 1488, 1493, 1505, 1505, 1501, 1498, 1500, 1501]
ch3 : [2941, 2934, 2920, 2929, 2927, 2932, 2927, 2930, 2929, 2926]
ch0 : [2286, 2488, 2554, 2572, 2591, 2539, 2542, 2599, 2580, 2436]
ch1 : [3171, 3165, 3167, 3166, 3177, 3174, 3180, 3174, 3174, 3170]
ch2 : [1480, 1502, 1508, 1502, 1503, 1501, 1503, 1493, 1493, 1502]
ch3 : [2931, 2930, 2932, 2934, 2924, 2929, 2926, 2930, 2931, 2933]
ch0 : [2542, 2576, 2586, 2576, 2519, 2506, 2599, 2287, 2484, 2558]
ch1 : [3161, 3184, 3172, 3176, 3180, 3181, 3180, 3171, 3163, 3161]
ch2 : [1508, 1499, 1515, 1508, 1499, 1503, 1490, 1493, 1508, 1501]
ch3 : [2938, 2930, 2930, 2929, 2932, 2931, 2934, 2929, 2931, 2930]
ch0 : [2578, 2597, 2545, 2536, 2603, 2576, 2438, 2556, 2561, 2586]
ch1 : [3176, 3167, 3175, 3176, 3179, 3176, 3168, 3164, 3172, 3171]
ch2 : [1503, 1501, 1504, 1501, 1498, 1489, 1504, 1506, 1510, 1502]
ch3 : [2936, 2928, 2928, 2928, 2931, 2928, 2934, 2931, 2927, 2931]
ch0 : [2568, 2525, 2500, 2559, 2345, 2500, 2584, 2585, 2590, 2542]
ch1 : [3177, 3179, 3180, 3180, 3174, 3162, 3171, 3181, 3180, 3177]
ch2 : [1503, 1498, 1504, 1487, 1489, 1505, 1510, 1503, 1503, 1495]
ch3 : [2929, 2931, 2935, 2929, 2931, 2931, 2935, 2925, 2929, 2929]
ch0 : [2549, 2601, 2600, 2455, 2567, 2585, 2592, 2595, 2567, 2523]
ch1 : [3181, 3178, 3175, 3172, 3168, 3175, 3176, 3177, 3179, 3178]
ch2 : [1499, 1495, 1493, 1501, 1509, 1503, 1509, 1503, 1510, 1502]
ch3 : [2938, 2933, 2932, 2943, 2935, 2936, 2930, 2929, 2933, 2927]
ch0 : [2600, 2429, 2497, 2563, 2595, 2602, 2566, 2569, 2616, 2610]
ch1 : [3184, 3176, 3165, 3164, 3176, 3191, 3177, 3179, 3178, 3178]
ch2 : [1494, 1494, 1503, 1514, 1503, 1502, 1502, 1506, 1498, 1488]
ch3 : [2932, 2934, 2932, 2932, 2934, 2931, 2927, 2928, 2934, 2933]
ch0 : [2404, 2551, 2585, 2597, 2596, 2557, 2520, 2611, 2464, 2457]
ch1 : [3170, 3168, 3174, 3173, 3175, 3182, 3181, 3174, 3174, 3167]
ch2 : [1503, 1512, 1513, 1512, 1490, 1505, 1504, 1490, 1483, 1508]
ch3 : [2928, 2927, 2931, 2932, 2932, 2932, 2932, 2932, 2928, 2934]
ch0 : [2554, 2585, 2602, 2572, 2567, 2602, 2584, 2407, 2546, 2579]
ch1 : [3166, 3169, 3176, 3167, 3175, 3176, 3171, 3167, 3167, 3172]
ch2 : [1510, 1509, 1504, 1502, 1504, 1500, 1490, 1501, 1509, 1506]
ch3 : [2932, 2929, 2929, 2931, 2927, 2932, 2936, 2937, 2936, 2935]
ch0 : [2588, 2586, 2537, 2515, 2610, 2518, 2456, 2577, 2581, 2599]
ch1 : [3173, 3174, 3178, 3178, 3179, 3176, 3167, 3162, 3168, 3173]
ch2 : [1503, 1505, 1508, 1503, 1499, 1490, 1506, 1498, 1511, 1505]
ch3 : [2933, 2932, 2931, 2932, 2928, 2928, 2932, 2936, 2934, 2933]
ch0 : [2565, 2578, 2610, 2605, 2388, 2553, 2576, 2577, 2594, 2541]
ch1 : [3173, 3175, 3178, 3173, 3170, 3166, 3181, 3172, 3175, 3177]
ch2 : [1492, 1504, 1501, 1494, 1504, 1508, 1507, 1507, 1505, 1504]
ch3 : [2929, 2932, 2930, 2931, 2933, 2934, 2933, 2919, 2926, 2927]
ch0 : [2607, 2396, 2555, 2580, 2577, 2580, 2557, 2542, 2609, 2560]
ch1 : [3169, 3173, 3167, 3154, 3168, 3172, 3172, 3177, 3174, 3172]
ch2 : [1497, 1501, 1512, 1513, 1510, 1510, 1508, 1506, 1494, 1487]
ch3 : [2927, 2932, 2938, 2933, 2931, 2929, 2931, 2931, 2930, 2925]
ch0 : [2447, 2564, 2591, 2602, 2585, 2575, 2611, 2611, 2388, 2547]
ch1 : [3162, 3165, 3162, 3172, 3173, 3170, 3171, 3166, 3163, 3172]
ch2 : [1511, 1513, 1519, 1509, 1505, 1501, 1499, 1490, 1499, 1515]
ch3 : [2933, 2938, 2937, 2931, 2927, 2928, 2928, 2931, 2931, 2931]
ch0 : [2585, 2570, 2600, 2561, 2541, 2611, 2597, 2436, 2551, 2593]
ch1 : [3166, 3168, 3171, 3173, 3173, 3173, 3172, 3162, 3161, 3166]
ch2 : [1509, 1508, 1505, 1505, 1507, 1495, 1489, 1511, 1516, 1509]
ch3 : [2933, 2931, 2930, 2930, 2933, 2929, 2930, 2934, 2935, 2931]
ch0 : [2606, 2567, 2568, 2606, 2614, 2376, 2534, 2582, 2582, 2599]
ch1 : [3170, 3171, 3176, 3167, 3173, 3168, 3159, 3166, 3160, 3173]
ch2 : [1509, 1505, 1505, 1518, 1494, 1502, 1508, 1513, 1509, 1507]
ch3 : [2937, 2927, 2931, 2935, 2929, 2934, 2932, 2931, 2935, 2931]
ch0 : [2554, 2541, 2616, 2540, 2418, 2561, 2584, 2599, 2582, 2559]
ch1 : [3176, 3174, 3176, 3173, 3165, 3162, 3166, 3170, 3172, 3173]
ch2 : [1501, 1500, 1496, 1490, 1507, 1511, 1506, 1509, 1509, 1506]
ch3 : [2930, 2930, 2932, 2927, 2932, 2934, 2936, 2931, 2928, 2930]
ch0 : [2607, 2603, 2374, 2541, 2582, 2574, 2606, 2568, 2549, 2613]
ch1 : [3176, 3171, 3170, 3166, 3169, 3170, 3168, 3164, 3172, 3178]
ch2 : [1506, 1493, 1482, 1508, 1506, 1506, 1506, 1511, 1509, 1494]
ch3 : [2932, 2931, 2931, 2937, 2932, 2934, 2931, 2930, 2931, 2930]
ch0 : [2580, 2415, 2537, 2579, 2606, 2586, 2560, 2595, 2614, 2389]
ch1 : [3170, 3164, 3163, 3166, 3175, 3174, 3177, 3174, 3178, 3171]
ch2 : [1488, 1522, 1512, 1507, 1505, 1507, 1506, 1510, 1497, 1496]
ch3 : [2932, 2932, 2934, 2932, 2930, 2929, 2929, 2933, 2934, 2933]
ch0 : [2512, 2580, 2583, 2598, 2557, 2558, 2611, 2593, 2416, 2550]
ch1 : [3155, 3170, 3176, 3175, 3176, 3169, 3180, 3169, 3180, 3169]
ch2 : [1507, 1509, 1508, 1508, 1509, 1504, 1501, 1488, 1504, 1511]
ch3 : [2934, 2933, 2934, 2928, 2932, 2930, 2928, 2931, 2935, 2930]
ch0 : [2579, 2599, 2584, 2555, 2566, 2615, 2485, 2524, 2589, 2585]
ch1 : [3167, 3171, 3179, 3174, 3184, 3177, 3177, 3171, 3167, 3173]
ch2 : [1508, 1507, 1505, 1508, 1504, 1494, 1492, 1510, 1510, 1506]
ch3 : [2936, 2933, 2928, 2929, 2933, 2932, 2932, 2932, 2938, 2927]
ch0 : [2603, 2549, 2558, 2608, 2609, 2375, 2553, 2578, 2602, 2587]
ch1 : [3175, 3174, 3176, 3180, 3170, 3171, 3165, 3173, 3173, 3171]
ch2 : [1505, 1506, 1499, 1501, 1486, 1503, 1509, 1509, 1508, 1502]
ch3 : [2929, 2933, 2928, 2930, 2929, 2929, 2930, 2934, 2921, 2927]
ch0 : [2614, 2615, 2391, 2541, 2588, 2602, 2598, 2565, 2542, 2613]
ch1 : [3175, 3172, 3172, 3162, 3173, 3172, 3171, 3180, 3178, 3177]
ch2 : [1502, 1483, 1499, 1508, 1507, 1516, 1502, 1508, 1504, 1493]
ch3 : [2932, 2928, 2933, 2937, 2931, 2934, 2928, 2928, 2934, 2932]
ch0 : [2565, 2526, 2567, 2577, 2600, 2577, 2575, 2615, 2594, 2350]
ch1 : [3174, 3167, 3165, 3174, 3178, 3177, 3180, 3181, 3172, 3170]
ch2 : [1491, 1501, 1509, 1504, 1512, 1502, 1502, 1499, 1484, 1506]
ch3 : [2933, 2930, 2933, 2928, 2930, 2928, 2932, 2927, 2924, 2932]
ch0 : [2538, 2559, 2597, 2608, 2549, 2554, 2611, 2583, 2495, 2582]
ch1 : [3152, 3164, 3176, 3177, 3177, 3174, 3178, 3170, 3166, 3168]
ch2 : [1509, 1501, 1506, 1508, 1503, 1503, 1497, 1488, 1509, 1508]
ch3 : [2935, 2932, 2934, 2928, 2937, 2928, 2931, 2936, 2933, 2933]
ch0 : [2587, 2605, 2582, 2574, 2613, 2612, 2349, 2539, 2585, 2610]
ch1 : [3169, 3176, 3172, 3178, 3181, 3180, 3171, 3166, 3183, 3173]
ch2 : [1505, 1503, 1508, 1504, 1501, 1488, 1499, 1512, 1506, 1505]
ch3 : [2933, 2929, 2930, 2933, 2932, 2930, 2931, 2934, 2934, 2933]
ch0 : [2596, 2568, 2553, 2608, 2604, 2499, 2590, 2575, 2604, 2583]
ch1 : [3174, 3175, 3175, 3176, 3176, 3163, 3169, 3167, 3177, 3180]
ch2 : [1499, 1503, 1506, 1493, 1491, 1505, 1510, 1510, 1506, 1504]
ch3 : [2921, 2926, 2932, 2932, 2932, 2938, 2930, 2926, 2929, 2932]
ch0 : [2567, 2613, 2609, 2315, 2529, 2577, 2600, 2609, 2562, 2565]
ch1 : [3178, 3177, 3172, 3160, 3162, 3166, 3171, 3171, 3177, 3175]
ch2 : [1502, 1497, 1489, 1497, 1512, 1506, 1505, 1502, 1502, 1516]
ch3 : [2918, 2926, 2927, 2932, 2931, 2926, 2936, 2923, 2928, 2929]
ch0 : [2629, 2616, 2488, 2591, 2588, 2608, 2593, 2577, 2616, 2609]
ch1 : [3180, 3173, 3161, 3166, 3176, 3177, 3176, 3179, 3180, 3178]
ch2 : [1492, 1483, 1504, 1506, 1507, 1504, 1509, 1502, 1502, 1486]
ch3 : [2927, 2930, 2943, 2933, 2929, 2932, 2930, 2932, 2931, 2929]
ch0 : [2303, 2532, 2591, 2600, 2613, 2579, 2562, 2617, 2594, 2503]
ch1 : [3169, 3162, 3166, 3169, 3173, 3174, 3175, 3177, 3172, 3167]
ch2 : [1497, 1509, 1508, 1506, 1503, 1516, 1502, 1492, 1493, 1504]
ch3 : [2927, 2931, 2931, 2935, 2931, 2926, 2933, 2927, 2934, 2932]
ch0 : [2575, 2597, 2600, 2604, 2555, 2611, 2619, 2276, 2520, 2592]
ch1 : [3168, 3172, 3175, 3171, 3177, 3176, 3175, 3171, 3159, 3165]
ch2 : [1507, 1505, 1503, 1504, 1503, 1502, 1487, 1487, 1501, 1508]
ch3 : [2933, 2930, 2930, 2928, 2930, 2932, 2928, 2930, 2933, 2933]
ch0 : [2604, 2609, 2572, 2559, 2613, 2616, 2488, 2583, 2593, 2610]
ch1 : [3172, 3173, 3178, 3172, 3177, 3172, 3164, 3162, 3175, 3176]
ch2 : [1509, 1501, 1510, 1500, 1493, 1492, 1499, 1506, 1506, 1503]
ch3 : [2932, 2930, 2929, 2928, 2923, 2934, 2930, 2934, 2932, 2929]
ch0 : [2604, 2546, 2548, 2618, 2305, 2495, 2592, 2607, 2612, 2561]
ch1 : [3172, 3181, 3181, 3171, 3173, 3164, 3166, 3173, 3177, 3177]
ch2 : [1502, 1504, 1507, 1490, 1487, 1508, 1507, 1505, 1505, 1502]
ch3 : [2930, 2930, 2931, 2928, 2927, 2933, 2933, 2931, 2928, 2927]
ch0 : [2591, 2620, 2619, 2485, 2600, 2611, 2623, 2626, 2570, 2491]
ch1 : [3172, 3176, 3173, 3165, 3168, 3169, 3172, 3175, 3173, 3176]
ch2 : [1508, 1496, 1489, 1502, 1512, 1521, 1507, 1502, 1503, 1501]
ch3 : [2929, 2932, 2930, 2938, 2932, 2930, 2930, 2933, 2929, 2932]
ch0 : [2606, 2306, 2606, 2626, 2631, 2634, 2528, 2549, 2636, 2639]
ch1 : [3173, 3176, 3163, 3166, 3170, 3173, 3184, 3175, 3176, 3182]
ch2 : [1476, 1491, 1508, 1507, 1503, 1502, 1521, 1501, 1499, 1491]
ch3 : [2930, 2930, 2931, 2933, 2929, 2929, 2928, 2926, 2929, 2931]
ch0 : [2533, 2551, 2522, 2487, 2572, 2599, 2616, 2634, 2393, 2523]
ch1 : [3163, 3162, 3171, 3167, 3177, 3180, 3178, 3174, 3174, 3162]
ch2 : [1500, 1506, 1505, 1506, 1503, 1504, 1510, 1490, 1492, 1506]
ch3 : [2929, 2929, 2932, 2926, 2929, 2926, 2928, 2929, 2929, 2940]
ch0 : [2628, 2625, 2585, 2598, 2556, 2628, 2617, 2624, 2636, 2634]
ch1 : [3160, 3165, 3174, 3175, 3172, 3178, 3175, 3167, 3165, 3172]
ch2 : [1507, 1508, 1503, 1487, 1501, 1498, 1489, 1485, 1506, 1504]
ch3 : [2929, 2930, 2918, 2924, 2923, 2924, 2925, 2930, 2929, 2929]
ch0 : [2640, 2633, 2437, 2544, 2656, 2544, 2354, 2479, 2633, 2638]
ch1 : [3173, 3173, 3180, 3179, 3174, 3173, 3163, 3163, 3167, 3173]
ch2 : [1499, 1501, 1501, 1500, 1493, 1486, 1509, 1506, 1503, 1494]
ch3 : [2922, 2919, 2923, 2926, 2923, 2928, 2928, 2929, 2926, 2924]
ch0 : [2599, 2634, 2640, 2577, 2509, 2494, 2549, 2592, 2618, 2631]
ch1 : [3176, 3173, 3176, 3176, 3168, 3172, 3169, 3171, 3176, 3180]
ch2 : [1501, 1501, 1492, 1487, 1495, 1506, 1503, 1490, 1500, 1500]
ch3 : [2924, 2925, 2922, 2922, 2922, 2916, 2926, 2929, 2928, 2929]
ch0 : [2543, 2469, 2402, 2498, 2531, 2588, 2617, 2627, 2598, 2620]
ch1 : [3174, 3176, 3177, 3162, 3159, 3180, 3170, 3173, 3174, 3178]
ch2 : [1499, 1499, 1484, 1501, 1502, 1507, 1500, 1501, 1498, 1493]
ch3 : [2931, 2913, 2923, 2930, 2932, 2928, 2928, 2924, 2935, 2925]
ch0 : [2508, 2300, 2533, 2604, 2599, 2536, 2500, 2600, 2619, 2573]
ch1 : [3176, 3170, 3164, 3162, 3171, 3173, 3180, 3174, 3174, 3172]
ch2 : [1484, 1497, 1509, 1502, 1501, 1498, 1499, 1500, 1485, 1489]
ch3 : [2926, 2927, 2929, 2929, 2926, 2922, 2926, 2927, 2922, 2927]
ch0 : [2344, 2431, 2579, 2598, 2604, 2606, 2601, 2537, 2400, 2407]
ch1 : [3163, 3163, 3169, 3177, 3177, 3176, 3177, 3169, 3173, 3168]
ch2 : [1502, 1506, 1503, 1499, 1483, 1488, 1495, 1488, 1494, 1507]
ch3 : [2929, 2929, 2929, 2926, 2928, 2929, 2922, 2927, 2928, 2930]
ch0 : [2491, 2592, 2601, 2608, 2514, 2237, 2529, 2589, 2573, 2564]
ch1 : [3170, 3176, 3179, 3180, 3172, 3161, 3167, 3172, 3174, 3175]
ch2 : [1499, 1497, 1495, 1494, 1484, 1494, 1501, 1505, 1500, 1500]
ch3 : [2927, 2927, 2928, 2925, 2922, 2926, 2927, 2931, 2926, 2929]
ch0 : [2472, 2458, 2601, 2585, 2380, 2584, 2586, 2483, 2452, 2370]
ch1 : [3181, 3180, 3180, 3177, 3166, 3167, 3176, 3177, 3179, 3176]
ch2 : [1494, 1481, 1493, 1480, 1506, 1504, 1501, 1496, 1497, 1490]
ch3 : [2922, 2922, 2928, 2926, 2929, 2931, 2932, 2928, 2927, 2922]
ch0 : [2587, 2593, 2321, 2462, 2568, 2528, 2492, 2471, 2455, 2581]
ch1 : [3182, 3176, 3178, 3176, 3176, 3180, 3182, 3185, 3182, 3182]
ch2 : [1498, 1485, 1488, 1500, 1499, 1500, 1497, 1497, 1497, 1487]
ch3 : [2931, 2929, 2928, 2928, 2930, 2929, 2927, 2925, 2930, 2927]
ch0 : [2570, 2500, 2572, 2467, 2435, 2427, 2566, 2590, 2588, 2316]
ch1 : [3175, 3168, 3169, 3178, 3184, 3175, 3170, 3185, 3182, 3175]
ch2 : [1480, 1502, 1499, 1500, 1499, 1492, 1500, 1494, 1483, 1486]
ch3 : [2924, 2926, 2933, 2928, 2927, 2922, 2926, 2925, 2925, 2933]
ch0 : [2416, 2389, 2311, 2543, 2560, 2558, 2588, 2464, 2333, 2462]
ch1 : [3175, 3177, 3184, 3183, 3184, 3175, 3183, 3182, 3177, 3177]
ch2 : [1488, 1498, 1496, 1508, 1491, 1507, 1486, 1480, 1496, 1502]
ch3 : [2931, 2929, 2929, 2927, 2926, 2927, 2915, 2924, 2927, 2928]
ch0 : [2490, 2556, 2515, 2496, 2564, 2561, 2300, 2454, 2492, 2487]
ch1 : [3178, 3180, 3182, 3181, 3187, 3180, 3177, 3172, 3184, 3177]
ch2 : [1498, 1495, 1500, 1495, 1487, 1484, 1483, 1503, 1500, 1498]
ch3 : [2930, 2928, 2927, 2926, 2928, 2926, 2930, 2931, 2933, 2932]
ch0 : [2502, 2461, 2448, 2562, 2498, 2320, 2483, 2492, 2533, 2457]
ch1 : [3182, 3186, 3185, 3181, 3181, 3172, 3177, 3180, 3168, 3183]
ch2 : [1498, 1498, 1503, 1484, 1480, 1499, 1500, 1503, 1495, 1495]
ch3 : [2921, 2932, 2929, 2929, 2925, 2932, 2929, 2930, 2931, 2927]
ch0 : [2455, 2530, 2503, 2296, 2391, 2510, 2475, 2500, 2485, 2448]
ch1 : [3181, 3185, 3181, 3179, 3177, 3174, 3183, 3180, 3179, 3188]
ch2 : [1497, 1491, 1486, 1486, 1499, 1498, 1499, 1494, 1495, 1501]
ch3 : [2928, 2928, 2936, 2933, 2929, 2932, 2927, 2930, 2928, 2932]
ch0 : [2546, 2455, 2268, 2469, 2480, 2537, 2468, 2446, 2453, 2541]
ch1 : [3183, 3177, 3177, 3173, 3178, 3179, 3181, 3183, 3185, 3183]
ch2 : [1489, 1481, 1496, 1502, 1501, 1501, 1492, 1496, 1497, 1485]
ch3 : [2932, 2927, 2931, 2932, 2930, 2929, 2927, 2929, 2916, 2928]
ch0 : [2412, 2413, 2474, 2474, 2489, 2469, 2463, 2538, 2490, 2257]
ch1 : [3173, 3174, 3178, 3181, 3188, 3183, 3182, 3184, 3182, 3173]
ch2 : [1488, 1503, 1500, 1503, 1496, 1500, 1501, 1493, 1481, 1494]
ch3 : [2931, 2934, 2933, 2930, 2933, 2929, 2929, 2933, 2929, 2915]
ch0 : [2446, 2495, 2531, 2509, 2471, 2464, 2537, 2495, 2421, 2498]
ch1 : [3175, 3176, 3180, 3177, 3179, 3182, 3184, 3176, 3172, 3179]
ch2 : [1501, 1506, 1519, 1496, 1493, 1503, 1487, 1488, 1501, 1507]
ch3 : [2933, 2932, 2932, 2923, 2926, 2929, 2927, 2940, 2935, 2928]
ch0 : [2494, 2510, 2486, 2483, 2542, 2543, 2272, 2470, 2514, 2543]
ch1 : [3181, 3182, 3182, 3187, 3182, 3176, 3174, 3172, 3177, 3176]
ch2 : [1497, 1503, 1501, 1502, 1495, 1484, 1495, 1510, 1503, 1502]
ch3 : [2929, 2927, 2929, 2941, 2942, 2930, 2928, 2931, 2931, 2931]
ch0 : [2545, 2508, 2482, 2560, 2501, 2449, 2535, 2533, 2538, 2526]
ch1 : [3187, 3180, 3179, 3176, 3178, 3173, 3178, 3178, 3175, 3175]
ch2 : [1499, 1506, 1498, 1489, 1491, 1501, 1510, 1509, 1502, 1505]
ch3 : [2928, 2928, 2932, 2924, 2930, 2920, 2931, 2930, 2930, 2931]
ch0 : [2526, 2562, 2566, 2290, 2493, 2544, 2553, 2562, 2506, 2514]
ch1 : [3185, 3185, 3180, 3173, 3172, 3175, 3175, 3176, 3183, 3180]
ch2 : [1501, 1497, 1487, 1495, 1505, 1503, 1498, 1499, 1500, 1502]
ch3 : [2933, 2927, 2928, 2933, 2933, 2931, 2932, 2931, 2925, 2930]
ch0 : [2574, 2551, 2469, 2558, 2548, 2567, 2550, 2526, 2580, 2538]
ch1 : [3182, 3180, 3173, 3174, 3179, 3171, 3183, 3179, 3192, 3178]
ch2 : [1492, 1486, 1508, 1502, 1503, 1503, 1498, 1500, 1497, 1489]
ch3 : [2934, 2932, 2934, 2944, 2932, 2931, 2928, 2931, 2932, 2930]
ch0 : [2289, 2521, 2542, 2551, 2565, 2534, 2512, 2582, 2547, 2456]
ch1 : [3175, 3170, 3176, 3176, 3181, 3184, 3182, 3182, 3180, 3175]
ch2 : [1492, 1499, 1503, 1490, 1500, 1495, 1501, 1483, 1487, 1500]
ch3 : [2930, 2928, 2932, 2933, 2926, 2927, 2928, 2926, 2929, 2932]
ch0 : [2529, 2541, 2568, 2550, 2509, 2581, 2554, 2276, 2481, 2535]
ch1 : [3177, 3179, 3181, 3177, 3186, 3181, 3181, 3174, 3171, 3174]
ch2 : [1508, 1502, 1501, 1497, 1499, 1502, 1486, 1495, 1498, 1509]
ch3 : [2932, 2930, 2925, 2923, 2926, 2930, 2932, 2936, 2930, 2930]
ch0 : [2527, 2570, 2520, 2518, 2584, 2546, 2433, 2513, 2526, 2559]
ch1 : [3175, 3178, 3178, 3185, 3172, 3181, 3175, 3174, 3178, 3184]
ch2 : [1503, 1501, 1499, 1500, 1489, 1489, 1500, 1504, 1507, 1502]
ch3 : [2930, 2927, 2928, 2934, 2923, 2930, 2925, 2927, 2934, 2927]
ch0 : [2529, 2488, 2571, 2578, 2231, 2462, 2529, 2538, 2555, 2504]
ch1 : [3184, 3175, 3182, 3179, 3174, 3169, 3172, 3189, 3179, 3183]
ch2 : [1501, 1500, 1502, 1479, 1498, 1506, 1505, 1502, 1503, 1498]
ch3 : [2931, 2927, 2928, 2926, 2928, 2927, 2931, 2933, 2926, 2928]
ch0 : [2505, 2577, 2556, 2415, 2514, 2519, 2550, 2537, 2499, 2486]
ch1 : [3185, 3181, 3180, 3179, 3177, 3179, 3172, 3184, 3188, 3182]
ch2 : [1501, 1491, 1489, 1500, 1504, 1509, 1500, 1500, 1502, 1500]
ch3 : [2926, 2926, 2927, 2930, 2932, 2930, 2930, 2931, 2928, 2929]
ch0 : [2556, 2229, 2419, 2525, 2542, 2546, 2517, 2508, 2558, 2569]
ch1 : [3180, 3175, 3167, 3167, 3177, 3176, 3180, 3194, 3181, 3180]
ch2 : [1486, 1489, 1506, 1500, 1503, 1503, 1501, 1500, 1490, 1491]
ch3 : [2930, 2927, 2930, 2933, 2929, 2929, 2929, 2925, 2932, 2928]
ch0 : [2424, 2513, 2529, 2563, 2538, 2494, 2494, 2575, 2281, 2442]
ch1 : [3174, 3174, 3181, 3186, 3180, 3177, 3185, 3193, 3178, 3164]
ch2 : [1494, 1521, 1503, 1503, 1502, 1502, 1501, 1486, 1483, 1508]
ch3 : [2931, 2931, 2926, 2928, 2929, 2928, 2933, 2928, 2926, 2931]
ch0 : [2572, 2566, 2534, 2504, 2581, 2364, 2457, 2550, 2566, 2580]
ch1 : [3183, 3175, 3179, 3182, 3178, 3177, 3173, 3171, 3178, 3175]
ch2 : [1502, 1502, 1501, 1502, 1486, 1489, 1501, 1508, 1504, 1499]
ch3 : [2923, 2921, 2931, 2941, 2929, 2924, 2930, 2930, 2925, 2921]
ch0 : [2543, 2559, 2591, 2586, 2408, 2551, 2570, 2583, 2561, 2544]
ch1 : [3181, 3181, 3174, 3177, 3177, 3158, 3171, 3182, 3185, 3180]
ch2 : [1501, 1500, 1496, 1478, 1498, 1506, 1502, 1505, 1501, 1497]
ch3 : [2926, 2932, 2926, 2932, 2936, 2932, 2928, 2929, 2929, 2934]
ch0 : [2519, 2587, 2469, 2469, 2556, 2583, 2593, 2575, 2552, 2601]
ch1 : [3182, 3180, 3178, 3167, 3172, 3177, 3175, 3182, 3179, 3184]
ch2 : [1497, 1485, 1483, 1495, 1503, 1499, 1499, 1497, 1495, 1490]
ch3 : [2931, 2926, 2929, 2930, 2932, 2932, 2927, 2928, 2924, 2932]
ch0 : [2580, 2402, 2553, 2589, 2589, 2575, 2544, 2506, 2596, 2551]
ch1 : [3178, 3174, 3177, 3181, 3179, 3184, 3185, 3185, 3182, 3178]
ch2 : [1496, 1493, 1502, 1503, 1499, 1501, 1498, 1497, 1481, 1482]
ch3 : [2929, 2930, 2930, 2927, 2928, 2930, 2940, 2929, 2926, 2929]
ch0 : [2470, 2571, 2582, 2599, 2562, 2568, 2600, 2604, 2390, 2553]
ch1 : [3173, 3171, 3189, 3175, 3178, 3179, 3178, 3178, 3174, 3170]
ch2 : [1504, 1507, 1501, 1494, 1494, 1500, 1492, 1485, 1490, 1507]
ch3 : [2930, 2930, 2930, 2926, 2921, 2931, 2931, 2931, 2930, 2939]
ch0 : [2591, 2566, 2575, 2551, 2508, 2595, 2534, 2448, 2558, 2573]
ch1 : [3177, 3177, 3180, 3179, 3183, 3182, 3179, 3171, 3178, 3176]
ch2 : [1501, 1496, 1489, 1501, 1502, 1485, 1483, 1496, 1501, 1506]
ch3 : [2928, 2932, 2928, 2929, 2933, 2916, 2926, 2942, 2930, 2932]
ch0 : [2589, 2554, 2541, 2602, 2605, 2367, 2539, 2579, 2552, 2583]
ch1 : [3182, 3181, 3181, 3183, 3179, 3176, 3175, 3174, 3181, 3181]
ch2 : [1500, 1503, 1499, 1492, 1484, 1489, 1501, 1506, 1500, 1498]
ch3 : [2930, 2917, 2926, 2932, 2929, 2932, 2932, 2931, 2927, 2928]
ch0 : [2547, 2512, 2607, 2594, 2424, 2551, 2566, 2596, 2567, 2549]
ch1 : [3179, 3182, 3183, 3175, 3169, 3181, 3174, 3171, 3183, 3174]
ch2 : [1498, 1499, 1496, 1482, 1502, 1503, 1503, 1498, 1509, 1494]
ch3 : [2929, 2931, 2928, 2926, 2934, 2930, 2934, 2929, 2928, 2931]
ch0 : [2599, 2602, 2366, 2520, 2568, 2562, 2577, 2542, 2516, 2595]
ch1 : [3179, 3180, 3176, 3176, 3176, 3180, 3179, 3182, 3192, 3180]
ch2 : [1496, 1484, 1486, 1496, 1503, 1499, 1500, 1495, 1495, 1485]
ch3 : [2930, 2932, 2929, 2933, 2930, 2925, 2930, 2932, 2928, 2931]
ch0 : [2546, 2411, 2548, 2572, 2599, 2554, 2546, 2597, 2594, 2357]
ch1 : [3174, 3173, 3172, 3177, 3178, 3178, 3178, 3183, 3181, 3177]
ch2 : [1479, 1498, 1517, 1499, 1499, 1491, 1495, 1496, 1486, 1491]
ch3 : [2931, 2940, 2933, 2932, 2928, 2926, 2930, 2932, 2932, 2933]
ch0 : [2522, 2565, 2569, 2585, 2557, 2524, 2609, 2569, 2394, 2539]
ch1 : [3172, 3177, 3178, 3179, 3179, 3182, 3181, 3175, 3172, 3167]
ch2 : [1492, 1509, 1499, 1499, 1498, 1494, 1488, 1483, 1499, 1500]
ch3 : [2932, 2932, 2934, 2927, 2931, 2928, 2931, 2923, 2932, 2932]
ch0 : [2576, 2575, 2566, 2542, 2589, 2600, 2377, 2513, 2575, 2563]
ch1 : [3174, 3176, 3181, 3180, 3180, 3175, 3164, 3176, 3177, 3178]
ch2 : [1502, 1500, 1498, 1497, 1493, 1484, 1488, 1503, 1502, 1500]
ch3 : [2927, 2927, 2927, 2929, 2929, 2933, 2932, 2934, 2931, 2928]
ch0 : [2584, 2546, 2541, 2605, 2570, 2390, 2537, 2571, 2595, 2558]
ch1 : [3184, 3182, 3179, 3182, 3180, 3173, 3170, 3179, 3171, 3181]
ch2 : [1496, 1490, 1497, 1492, 1482, 1499, 1503, 1505, 1508, 1500]
ch3 : [2928, 2922, 2934, 2937, 2931, 2930, 2932, 2934, 2935, 2927]
ch0 : [2546, 2583, 2601, 2464, 2524, 2585, 2564, 2588, 2564, 2544]
ch1 : [3179, 3181, 3176, 3178, 3171, 3175, 3180, 3184, 3168, 3182]
ch2 : [1501, 1501, 1488, 1491, 1502, 1500, 1505, 1499, 1504, 1499]
ch3 : [2932, 2929, 2938, 2934, 2936, 2930, 2931, 2931, 2931, 2933]
ch0 : [2607, 2590, 2385, 2535, 2580, 2585, 2581, 2553, 2553, 2605]
ch1 : [3181, 3179, 3172, 3172, 3173, 3178, 3180, 3180, 3183, 3179]
ch2 : [1493, 1481, 1500, 1506, 1502, 1495, 1503, 1509, 1498, 1489]
ch3 : [2935, 2929, 2929, 2937, 2932, 2934, 2930, 2930, 2933, 2932]
ch0 : [2486, 2509, 2580, 2573, 2583, 2556, 2561, 2603, 2602, 2371]
ch1 : [3176, 3171, 3175, 3175, 3182, 3181, 3185, 3180, 3171, 3175]
ch2 : [1488, 1505, 1490, 1504, 1503, 1495, 1498, 1498, 1485, 1503]
ch3 : [2929, 2939, 2933, 2931, 2933, 2933, 2932, 2933, 2940, 2931]
ch0 : [2532, 2566, 2600, 2588, 2542, 2543, 2605, 2539, 2513, 2562]
ch1 : [3175, 3177, 3179, 3179, 3180, 3182, 3181, 3181, 3167, 3171]
ch2 : [1507, 1505, 1501, 1501, 1501, 1497, 1494, 1491, 1504, 1506]
ch3 : [2920, 2937, 2934, 2927, 2931, 2919, 2933, 2934, 2931, 2929]
ch0 : [2561, 2585, 2554, 2570, 2610, 2603, 2332, 2543, 2563, 2595]
ch1 : [3187, 3179, 3178, 3182, 3177, 3178, 3173, 3167, 3169, 3171]
ch2 : [1507, 1502, 1503, 1502, 1499, 1482, 1513, 1508, 1510, 1502]
ch3 : [2934, 2927, 2932, 2935, 2930, 2929, 2936, 2931, 2934, 2932]
ch0 : [2568, 2604, 2563, 2331, 2528, 2585, 2584, 2603, 2558, 2535]
ch1 : [3177, 3180, 3180, 3176, 3169, 3174, 3181, 3174, 3180, 3184]
ch2 : [1498, 1498, 1486, 1495, 1509, 1506, 1508, 1500, 1501, 1502]
ch3 : [2931, 2935, 2932, 2930, 2937, 2939, 2936, 2928, 2929, 2940]
ch0 : [2602, 2573, 2477, 2566, 2573, 2581, 2577, 2547, 2601, 2597]
ch1 : [3176, 3177, 3170, 3174, 3180, 3191, 3179, 3182, 3181, 3181]
ch2 : [1491, 1487, 1503, 1508, 1503, 1507, 1503, 1502, 1500, 1491]
ch3 : [2934, 2934, 2936, 2934, 2933, 2931, 2931, 2934, 2933, 2936]
ch0 : [2305, 2511, 2571, 2566, 2594, 2552, 2552, 2606, 2595, 2484]
ch1 : [3179, 3174, 3175, 3178, 3184, 3184, 3179, 3184, 3177, 3172]
ch2 : [1499, 1509, 1507, 1516, 1504, 1497, 1506, 1493, 1488, 1506]
ch3 : [2935, 2935, 2931, 2943, 2929, 2930, 2935, 2933, 2932, 2930]
ch0 : [2559, 2568, 2597, 2587, 2545, 2600, 2584, 2295, 2500, 2570]
ch1 : [3175, 3181, 3179, 3175, 3181, 3181, 3182, 3176, 3173, 3177]
ch2 : [1511, 1508, 1505, 1509, 1502, 1504, 1493, 1498, 1510, 1510]
ch3 : [2937, 2936, 2937, 2931, 2935, 2936, 2937, 2933, 2933, 2934]
ch0 : [2580, 2604, 2562, 2567, 2608, 2609, 2471, 2572, 2578, 2594]
ch1 : [3176, 3179, 3179, 3183, 3179, 3178, 3176, 3176, 3180, 3179]
ch2 : [1506, 1504, 1505, 1503, 1492, 1492, 1505, 1507, 1508, 1505]
ch3 : [2937, 2930, 2930, 2932, 2936, 2935, 2936, 2936, 2932, 2936]
ch0 : [2589, 2549, 2577, 2601, 2265, 2507, 2581, 2587, 2601, 2551]
ch1 : [3183, 3180, 3180, 3174, 3175, 3170, 3167, 3174, 3178, 3175]
ch2 : [1491, 1503, 1503, 1491, 1492, 1510, 1503, 1502, 1503, 1505]
ch3 : [2932, 2933, 2934, 2930, 2926, 2935, 2927, 2933, 2935, 2931]
ch0 : [2568, 2608, 2585, 2449, 2570, 2582, 2598, 2587, 2568, 2523]
ch1 : [3179, 3181, 3178, 3171, 3172, 3177, 3180, 3179, 3183, 3179]
ch2 : [1499, 1495, 1474, 1500, 1508, 1507, 1507, 1499, 1494, 1502]
ch3 : [2929, 2931, 2931, 2935, 2934, 2930, 2945, 2936, 2932, 2935]
ch0 : [2605, 2303, 2503, 2601, 2600, 2606, 2581, 2563, 2612, 2611]
ch1 : [3182, 3175, 3167, 3168, 3177, 3179, 3178, 3190, 3180, 3174]
ch2 : [1485, 1497, 1508, 1506, 1505, 1489, 1501, 1503, 1491, 1488]
ch3 : [2929, 2929, 2934, 2938, 2932, 2931, 2926, 2930, 2930, 2933]
ch0 : [2495, 2602, 2580, 2572, 2513, 2550, 2573, 2619, 2433, 2510]
ch1 : [3168, 3171, 3176, 3181, 3180, 3182, 3180, 3174, 3176, 3172]
ch2 : [1503, 1510, 1514, 1505, 1507, 1502, 1499, 1489, 1490, 1510]
ch3 : [2935, 2932, 2933, 2933, 2927, 2917, 2932, 2929, 2932, 2934]
ch0 : [2607, 2613, 2617, 2605, 2589, 2620, 2589, 2361, 2549, 2609]
ch1 : [3172, 3172, 3179, 3177, 3181, 3179, 3177, 3176, 3171, 3174]
ch2 : [1504, 1500, 1501, 1503, 1503, 1493, 1487, 1503, 1504, 1503]
ch3 : [2934, 2914, 2927, 2937, 2927, 2928, 2930, 2932, 2932, 2929]
ch0 : [2620, 2623, 2636, 2613, 2304, 2510, 2605, 2618, 2622, 2604]
ch1 : [3175, 3179, 3177, 3176, 3172, 3155, 3161, 3166, 3179, 3182]
ch2 : [1502, 1501, 1496, 1484, 1499, 1505, 1499, 1503, 1502, 1495]
ch3 : [2923, 2925, 2928, 2927, 2929, 2926, 2928, 2927, 2923, 2925]
ch0 : [2502, 2626, 2503, 2426, 2556, 2571, 2608, 2556, 2603, 2629]
ch1 : [3180, 3176, 3174, 3165, 3164, 3174, 3172, 3178, 3176, 3177]
ch2 : [1492, 1484, 1480, 1499, 1502, 1498, 1494, 1495, 1495, 1493]
ch3 : [2914, 2916, 2909, 2928, 2927, 2929, 2918, 2922, 2921, 2924]
ch0 : [2630, 2287, 2459, 2405, 2606, 2620, 2620, 2423, 2578, 2576]
ch1 : [3175, 3175, 3172, 3174, 3174, 3176, 3177, 3181, 3180, 3174]
ch2 : [1482, 1494, 1499, 1501, 1502, 1493, 1497, 1482, 1489, 1482]
ch3 : [2924, 2927, 2924, 2924, 2919, 2921, 2920, 2923, 2917, 2920]
ch0 : [2394, 2549, 2604, 2619, 2572, 2589, 2622, 2603, 2460, 2620]
ch1 : [3164, 3167, 3169, 3176, 3174, 3178, 3177, 3176, 3176, 3170]
ch2 : [1499, 1503, 1495, 1491, 1495, 1501, 1503, 1484, 1491, 1496]
ch3 : [2922, 2922, 2921, 2915, 2915, 2917, 2911, 2921, 2922, 2924]
ch0 : [2619, 2272, 2507, 2586, 2505, 2623, 2623, 2385, 2519, 2599]
ch1 : [3174, 3175, 3177, 3178, 3181, 3178, 3176, 3168, 3163, 3174]
ch2 : [1493, 1499, 1494, 1493, 1501, 1483, 1478, 1493, 1497, 1497]
ch3 : [2921, 2916, 2919, 2920, 2921, 2915, 2919, 2923, 2924, 2919]
ch0 : [2617, 2589, 2429, 2572, 2604, 2475, 2616, 2616, 2603, 2621]
ch1 : [3171, 3177, 3180, 3170, 3179, 3172, 3168, 3173, 3176, 3178]
ch2 : [1494, 1490, 1496, 1489, 1479, 1488, 1500, 1502, 1495, 1495]
ch3 : [2917, 2916, 2919, 2911, 2920, 2917, 2921, 2919, 2919, 2921]
ch0 : [2536, 2449, 2613, 2615, 2433, 2515, 2556, 2547, 2602, 2616]
ch1 : [3179, 3184, 3175, 3177, 3169, 3166, 3173, 3179, 3171, 3167]
ch2 : [1499, 1499, 1484, 1479, 1499, 1515, 1499, 1497, 1496, 1496]
ch3 : [2915, 2907, 2922, 2917, 2922, 2929, 2923, 2919, 2930, 2917]
ch0 : [2620, 2571, 2367, 2569, 2608, 2598, 2582, 2486, 2430, 2607]
ch1 : [3180, 3175, 3175, 3170, 3173, 3173, 3178, 3184, 3183, 3184]
ch2 : [1491, 1481, 1488, 1500, 1501, 1498, 1499, 1497, 1495, 1481]
ch3 : [2922, 2912, 2924, 2924, 2925, 2919, 2922, 2918, 2924, 2920]
ch0 : [2601, 2478, 2607, 2580, 2589, 2579, 2604, 2610, 2479, 2302]
ch1 : [3177, 3163, 3169, 3177, 3178, 3173, 3180, 3181, 3178, 3174]
ch2 : [1481, 1498, 1501, 1500, 1498, 1499, 1494, 1495, 1484, 1498]
ch3 : [2921, 2926, 2924, 2932, 2923, 2916, 2921, 2924, 2924, 2925]
ch0 : [2487, 2458, 2563, 2603, 2587, 2289, 2423, 2565, 2460, 2484]
ch1 : [3172, 3175, 3186, 3180, 3183, 3186, 3181, 3177, 3170, 3172]
ch2 : [1498, 1495, 1498, 1482, 1491, 1494, 1480, 1480, 1494, 1503]
ch3 : [2924, 2924, 2924, 2920, 2918, 2919, 2911, 2918, 2919, 2923]
ch0 : [2500, 2528, 2521, 2576, 2453, 2345, 2577, 2581, 2517, 2434]
ch1 : [3177, 3177, 3181, 3188, 3179, 3169, 3161, 3167, 3177, 3180]
ch2 : [1494, 1493, 1481, 1487, 1480, 1489, 1497, 1497, 1493, 1492]
ch3 : [2924, 2923, 2920, 2921, 2919, 2919, 2925, 2925, 2922, 2924]
ch0 : [2574, 2549, 2583, 2431, 2471, 2514, 2503, 2504, 2425, 2505]
ch1 : [3174, 3182, 3183, 3173, 3172, 3174, 3178, 3179, 3179, 3181]
ch2 : [1498, 1492, 1480, 1479, 1498, 1500, 1493, 1491, 1491, 1493]
ch3 : [2921, 2921, 2928, 2911, 2922, 2924, 2921, 2922, 2920, 2924]
ch0 : [2579, 2479, 2265, 2507, 2481, 2539, 2548, 2520, 2568, 2575]
ch1 : [3185, 3179, 3171, 3170, 3173, 3175, 3170, 3181, 3196, 3183]
ch2 : [1489, 1476, 1489, 1496, 1493, 1498, 1490, 1490, 1492, 1480]
ch3 : [2925, 2917, 2922, 2923, 2923, 2923, 2920, 2915, 2921, 2924]
ch0 : [2372, 2405, 2490, 2553, 2564, 2495, 2440, 2570, 2475, 2281]
ch1 : [3178, 3169, 3175, 3175, 3175, 3180, 3183, 3189, 3175, 3176]
ch2 : [1482, 1493, 1491, 1501, 1492, 1489, 1489, 1489, 1477, 1491]
ch3 : [2924, 2923, 2926, 2922, 2926, 2922, 2911, 2918, 2919, 2924]
ch0 : [2476, 2517, 2555, 2538, 2480, 2452, 2555, 2504, 2411, 2494]
ch1 : [3168, 3178, 3181, 3181, 3181, 3182, 3178, 3183, 3175, 3172]
ch2 : [1500, 1495, 1489, 1496, 1489, 1497, 1480, 1484, 1485, 1499]
ch3 : [2930, 2924, 2928, 2919, 2921, 2922, 2910, 2925, 2926, 2924]
ch0 : [2502, 2530, 2470, 2482, 2557, 2491, 2229, 2436, 2502, 2523]
ch1 : [3180, 3179, 3185, 3187, 3185, 3179, 3175, 3167, 3177, 3179]
ch2 : [1507, 1495, 1490, 1494, 1492, 1478, 1492, 1501, 1499, 1495]
ch3 : [2923, 2921, 2921, 2925, 2921, 2919, 2921, 2928, 2924, 2925]
ch0 : [2526, 2508, 2487, 2548, 2476, 2420, 2482, 2468, 2545, 2491]
ch1 : [3176, 3179, 3184, 3180, 3179, 3174, 3174, 3178, 3175, 3182]
ch2 : [1495, 1494, 1491, 1489, 1468, 1496, 1494, 1491, 1500, 1498]
ch3 : [2923, 2920, 2922, 2921, 2925, 2925, 2928, 2924, 2922, 2919]
ch0 : [2478, 2556, 2518, 2236, 2431, 2495, 2510, 2512, 2493, 2476]
ch1 : [3182, 3181, 3181, 3176, 3171, 3172, 3172, 3183, 3181, 3185]
ch2 : [1491, 1491, 1476, 1495, 1501, 1501, 1495, 1493, 1496, 1496]
ch3 : [2919, 2923, 2921, 2925, 2923, 2926, 2924, 2926, 2921, 2919]
ch0 : [2551, 2533, 2392, 2499, 2493, 2512, 2510, 2488, 2557, 2553]
ch1 : [3179, 3176, 3174, 3179, 3177, 3179, 3183, 3187, 3183, 3180]
ch2 : [1486, 1485, 1497, 1499, 1496, 1491, 1499, 1494, 1497, 1481]
ch3 : [2919, 2922, 2923, 2924, 2921, 2922, 2921, 2924, 2923, 2921]
ch0 : [2242, 2457, 2510, 2521, 2541, 2498, 2488, 2559, 2543, 2413]
ch1 : [3161, 3173, 3180, 3178, 3177, 3180, 3184, 3179, 3182, 3173]
ch2 : [1487, 1495, 1500, 1500, 1499, 1496, 1495, 1487, 1486, 1500]
ch3 : [2919, 2926, 2916, 2925, 2921, 2919, 2921, 2926, 2925, 2926]
ch0 : [2517, 2551, 2503, 2501, 2566, 2563, 2399, 2516, 2517, 2561]
ch1 : [3180, 3176, 3184, 3178, 3184, 3184, 3174, 3174, 3181, 3184]
ch2 : [1503, 1503, 1505, 1499, 1491, 1493, 1500, 1506, 1503, 1502]
ch3 : [2930, 2925, 2924, 2922, 2926, 2927, 2927, 2913, 2927, 2927]
ch0 : [2538, 2492, 2480, 2569, 2261, 2458, 2531, 2552, 2562, 2514]
ch1 : [3184, 3183, 3177, 3181, 3179, 3173, 3177, 3178, 3180, 3181]
ch2 : [1501, 1497, 1501, 1486, 1491, 1505, 1507, 1502, 1501, 1501]
ch3 : [2927, 2927, 2923, 2926, 2928, 2931, 2933, 2930, 2925, 2925]
ch0 : [2519, 2576, 2564, 2409, 2536, 2558, 2570, 2551, 2518, 2504]
ch1 : [3180, 3180, 3175, 3175, 3176, 3177, 3179, 3188, 3183, 3168]
ch2 : [1501, 1497, 1488, 1498, 1506, 1500, 1505, 1501, 1502, 1502]
ch3 : [2927, 2928, 2929, 2936, 2934, 2933, 2933, 2931, 2931, 2929]
ch0 : [2569, 2309, 2473, 2540, 2553, 2573, 2514, 2519, 2573, 2552]
ch1 : [3181, 3181, 3172, 3180, 3175, 3181, 3182, 3182, 3173, 3175]
ch2 : [1501, 1489, 1503, 1507, 1506, 1502, 1501, 1504, 1493, 1485]
ch3 : [2929, 2927, 2930, 2934, 2928, 2929, 2930, 2930, 2926, 2927]
ch0 : [2391, 2521, 2522, 2543, 2541, 2485, 2460, 2563, 2335, 2423]
ch1 : [3174, 3176, 3180, 3191, 3183, 3182, 3182, 3183, 3179, 3172]
ch2 : [1486, 1507, 1509, 1502, 1505, 1508, 1499, 1483, 1489, 1510]
ch3 : [2933, 2931, 2931, 2933, 2931, 2931, 2928, 2930, 2931, 2934]
ch0 : [2504, 2526, 2540, 2491, 2489, 2572, 2524, 2356, 2488, 2509]
ch1 : [3176, 3174, 3173, 3184, 3183, 3180, 3180, 3173, 3177, 3175]
ch2 : [1503, 1505, 1502, 1485, 1503, 1500, 1490, 1498, 1506, 1505]
ch3 : [2931, 2927, 2931, 2927, 2929, 2932, 2933, 2933, 2930, 2931]
ch0 : [2542, 2529, 2490, 2459, 2516, 2408, 2411, 2491, 2527, 2555]
ch1 : [3180, 3184, 3181, 3185, 3180, 3178, 3173, 3174, 3179, 3178]
ch2 : [1503, 1498, 1503, 1505, 1491, 1487, 1508, 1506, 1506, 1506]
ch3 : [2931, 2931, 2933, 2931, 2931, 2932, 2934, 2934, 2931, 2932]
ch0 : [2514, 2514, 2573, 2555, 2361, 2489, 2537, 2557, 2538, 2494]
ch1 : [3184, 3183, 3185, 3179, 3180, 3177, 3187, 3179, 3183, 3177]
ch2 : [1499, 1511, 1500, 1490, 1499, 1509, 1508, 1502, 1494, 1507]
ch3 : [2928, 2927, 2942, 2931, 2932, 2933, 2931, 2930, 2933, 2933]
ch0 : [2468, 2567, 2480, 2383, 2505, 2532, 2559, 2519, 2523, 2571]
ch1 : [3185, 3180, 3177, 3176, 3172, 3177, 3175, 3181, 3178, 3179]
ch2 : [1502, 1492, 1484, 1503, 1505, 1505, 1503, 1502, 1501, 1495]
ch3 : [2925, 2932, 2931, 2930, 2933, 2933, 2931, 2921, 2928, 2928]
ch0 : [2566, 2347, 2504, 2529, 2531, 2548, 2514, 2483, 2570, 2487]
ch1 : [3178, 3175, 3173, 3179, 3179, 3176, 3185, 3183, 3181, 3164]
ch2 : [1491, 1498, 1507, 1505, 1504, 1504, 1504, 1509, 1496, 1493]
ch3 : [2929, 2930, 2933, 2931, 2936, 2933, 2928, 2930, 2930, 2929]
ch0 : [2399, 2522, 2550, 2572, 2528, 2530, 2570, 2575, 2348, 2504]
ch1 : [3172, 3167, 3177, 3189, 3174, 3182, 3181, 3181, 3180, 3173]
ch2 : [1505, 1510, 1502, 1503, 1502, 1503, 1503, 1491, 1495, 1507]
ch3 : [2932, 2927, 2929, 2931, 2931, 2927, 2932, 2928, 2930, 2932]
ch0 : [2537, 2523, 2552, 2535, 2498, 2582, 2511, 2411, 2520, 2554]
ch1 : [3174, 3190, 3179, 3181, 3185, 3183, 3189, 3166, 3170, 3177]
ch2 : [1503, 1508, 1507, 1503, 1499, 1491, 1483, 1506, 1506, 1506]
ch3 : [2927, 2932, 2933, 2930, 2930, 2929, 2927, 2930, 2936, 2930]
ch0 : [2575, 2549, 2508, 2580, 2585, 2347, 2504, 2550, 2535, 2568]
ch1 : [3179, 3180, 3178, 3181, 3180, 3176, 3167, 3175, 3180, 3182]
ch2 : [1495, 1502, 1496, 1498, 1489, 1498, 1506, 1504, 1505, 1501]
ch3 : [2929, 2928, 2926, 2928, 2933, 2928, 2931, 2927, 2931, 2928]
ch0 : [2525, 2488, 2582, 2580, 2390, 2538, 2568, 2579, 2561, 2528]
ch1 : [3184, 3183, 3167, 3175, 3170, 3170, 3178, 3184, 3182, 3185]
ch2 : [1502, 1495, 1488, 1484, 1503, 1504, 1516, 1503, 1503, 1501]
ch3 : [2928, 2929, 2924, 2927, 2932, 2933, 2935, 2932, 2927, 2928]
ch0 : [2578, 2581, 2341, 2517, 2563, 2545, 2563, 2534, 2522, 2589]
ch1 : [3180, 3177, 3176, 3175, 3173, 3181, 3179, 3181, 3185, 3177]
ch2 : [1493, 1489, 1488, 1502, 1503, 1504, 1493, 1500, 1499, 1493]
ch3 : [2938, 2928, 2934, 2917, 2931, 2926, 2928, 2930, 2930, 2930]
ch0 : [2522, 2373, 2514, 2558, 2580, 2564, 2544, 2563, 2587, 2388]
ch1 : [3178, 3173, 3168, 3175, 3182, 3182, 3186, 3183, 3183, 3181]
ch2 : [1485, 1499, 1506, 1503, 1503, 1499, 1500, 1499, 1486, 1491]
ch3 : [2927, 2931, 2931, 2931, 2931, 2927, 2929, 2932, 2931, 2938]
ch0 : [2497, 2553, 2555, 2564, 2549, 2519, 2591, 2590, 2350, 2523]
ch1 : [3174, 3169, 3177, 3182, 3183, 3183, 3184, 3181, 3175, 3171]
ch2 : [1503, 1500, 1501, 1501, 1498, 1504, 1493, 1483, 1497, 1500]
ch3 : [2932, 2932, 2931, 2933, 2943, 2921, 2930, 2926, 2932, 2934]
ch0 : [2567, 2585, 2568, 2520, 2524, 2590, 2449, 2488, 2561, 2545]
ch1 : [3180, 3167, 3180, 3184, 3181, 3181, 3184, 3174, 3179, 3190]
ch2 : [1507, 1498, 1504, 1497, 1502, 1490, 1486, 1502, 1502, 1503]
ch3 : [2934, 2930, 2929, 2930, 2931, 2930, 2937, 2937, 2932, 2928]
ch0 : [2531, 2514, 2538, 2595, 2553, 2351, 2532, 2554, 2578, 2530]
ch1 : [3182, 3193, 3183, 3186, 3181, 3171, 3175, 3176, 3178, 3183]
ch2 : [1499, 1503, 1494, 1492, 1483, 1502, 1506, 1505, 1498, 1503]
ch3 : [2938, 2935, 2933, 2934, 2927, 2932, 2937, 2934, 2930, 2926]
ch0 : [2514, 2524, 2583, 2499, 2486, 2560, 2540, 2568, 2537, 2551]
ch1 : [3179, 3184, 3175, 3183, 3179, 3178, 3184, 3183, 3186, 3182]
ch2 : [1498, 1500, 1489, 1484, 1498, 1507, 1507, 1507, 1506, 1499]
ch3 : [2930, 2927, 2932, 2931, 2934, 2937, 2937, 2933, 2933, 2933]
ch0 : [2587, 2553, 2331, 2515, 2539, 2583, 2568, 2527, 2524, 2601]
ch1 : [3187, 3181, 3177, 3172, 3175, 3184, 3183, 3185, 3192, 3183]
ch2 : [1493, 1481, 1500, 1508, 1506, 1507, 1510, 1501, 1501, 1487]
ch3 : [2932, 2926, 2932, 2937, 2935, 2930, 2931, 2932, 2932, 2931]
ch0 : [2526, 2483, 2546, 2537, 2562, 2543, 2531, 2587, 2562, 2322]
ch1 : [3176, 3184, 3175, 3181, 3185, 3183, 3186, 3185, 3182, 3177]
ch2 : [1490, 1502, 1502, 1504, 1503, 1504, 1506, 1499, 1490, 1499]
ch3 : [2932, 2935, 2930, 2933, 2933, 2935, 2932, 2932, 2932, 2932]
ch0 : [2515, 2547, 2564, 2576, 2517, 2509, 2592, 2571, 2479, 2553]
ch1 : [3171, 3177, 3179, 3180, 3182, 3184, 3183, 3178, 3174, 3177]
ch2 : [1512, 1507, 1502, 1503, 1500, 1501, 1492, 1489, 1501, 1505]
ch3 : [2935, 2937, 2925, 2942, 2929, 2932, 2934, 2934, 2937, 2933]
ch0 : [2540, 2576, 2552, 2540, 2586, 2583, 2280, 2495, 2542, 2557]
ch1 : [3181, 3181, 3183, 3184, 3185, 3181, 3173, 3174, 3183, 3178]
ch2 : [1506, 1508, 1497, 1502, 1499, 1490, 1495, 1507, 1505, 1502]
ch3 : [2929, 2948, 2918, 2930, 2928, 2934, 2934, 2934, 2935, 2940]
ch0 : [2576, 2535, 2549, 2591, 2535, 2455, 2542, 2544, 2575, 2577]
ch1 : [3180, 3185, 3183, 3177, 3184, 3180, 3175, 3176, 3182, 3186]
ch2 : [1502, 1496, 1501, 1496, 1493, 1498, 1508, 1499, 1503, 1503]
ch3 : [2932, 2936, 2931, 2932, 2932, 2934, 2920, 2933, 2932, 2931]
ch0 : [2537, 2592, 2585, 2290, 2495, 2562, 2560, 2581, 2523, 2533]
ch1 : [3185, 3187, 3180, 3177, 3168, 3180, 3180, 3185, 3181, 3184]
ch2 : [1501, 1500, 1488, 1498, 1506, 1509, 1503, 1502, 1501, 1499]
ch3 : [2927, 2933, 2931, 2936, 2919, 2935, 2936, 2932, 2932, 2931]
ch0 : [2593, 2577, 2464, 2545, 2543, 2584, 2557, 2522, 2585, 2592]
ch1 : [3181, 3180, 3173, 3175, 3183, 3185, 3182, 3188, 3188, 3186]
ch2 : [1487, 1495, 1508, 1501, 1505, 1503, 1503, 1498, 1507, 1489]
ch3 : [2934, 2936, 2936, 2935, 2933, 2932, 2931, 2932, 2934, 2933]
ch0 : [2280, 2498, 2548, 2553, 2585, 2514, 2548, 2587, 2590, 2435]
ch1 : [3177, 3181, 3175, 3178, 3185, 3178, 3185, 3180, 3175, 3173]
ch2 : [1492, 1509, 1510, 1503, 1503, 1506, 1504, 1505, 1504, 1503]
ch3 : [2929, 2949, 2936, 2919, 2932, 2924, 2929, 2934, 2932, 2934]
ch0 : [2532, 2550, 2585, 2561, 2533, 2562, 2590, 2269, 2489, 2540]
ch1 : [3175, 3177, 3190, 3186, 3183, 3184, 3180, 3176, 3174, 3183]
ch2 : [1506, 1505, 1501, 1505, 1512, 1499, 1493, 1490, 1507, 1508]
ch3 : [2931, 2932, 2933, 2932, 2932, 2934, 2931, 2930, 2936, 2932]
ch0 : [2565, 2587, 2542, 2534, 2598, 2571, 2435, 2547, 2555, 2574]
ch1 : [3178, 3191, 3184, 3184, 3192, 3180, 3170, 3175, 3171, 3181]
ch2 : [1491, 1504, 1500, 1502, 1495, 1493, 1503, 1513, 1506, 1504]
ch3 : [2935, 2931, 2932, 2935, 2929, 2935, 2934, 2934, 2935, 2936]
ch0 : [2543, 2596, 2597, 2442, 2548, 2568, 2580, 2574, 2519, 2526]
ch1 : [3180, 3177, 3175, 3176, 3177, 3178, 3179, 3183, 3183, 3183]
ch2 : [1502, 1496, 1491, 1504, 1523, 1503, 1504, 1500, 1502, 1492]
ch3 : [2933, 2942, 2934, 2948, 2934, 2933, 2928, 2933, 2929, 2933]
ch0 : [2599, 2298, 2472, 2552, 2576, 2582, 2533, 2543, 2600, 2588]
ch1 : [3180, 3176, 3170, 3175, 3175, 3182, 3175, 3181, 3179, 3180]
ch2 : [1494, 1495, 1513, 1513, 1507, 1505, 1507, 1504, 1493, 1492]
ch3 : [2931, 2926, 2935, 2936, 2934, 2929, 2936, 2932, 2936, 2932]
ch0 : [2436, 2537, 2567, 2585, 2573, 2511, 2507, 2598, 2360, 2470]
ch1 : [3174, 3172, 3178, 3176, 3182, 3184, 3186, 3178, 3178, 3172]
ch2 : [1509, 1512, 1511, 1508, 1508, 1508, 1506, 1492, 1494, 1514]
ch3 : [2938, 2933, 2935, 2931, 2934, 2932, 2934, 2919, 2929, 2932]
ch0 : [2549, 2559, 2589, 2537, 2564, 2600, 2583, 2410, 2537, 2559]
ch1 : [3172, 3173, 3178, 3177, 3183, 3169, 3177, 3165, 3171, 3186]
ch2 : [1511, 1503, 1507, 1509, 1507, 1495, 1487, 1503, 1509, 1511]
ch3 : [2938, 2936, 2933, 2928, 2932, 2935, 2933, 2935, 2934, 2932]
ch0 : [2594, 2572, 2527, 2499, 2599, 2426, 2460, 2552, 2574, 2590]
ch1 : [3188, 3179, 3179, 3180, 3180, 3180, 3169, 3168, 3173, 3180]
ch2 : [1502, 1505, 1508, 1504, 1491, 1495, 1510, 1516, 1509, 1503]
ch3 : [2934, 2933, 2927, 2937, 2928, 2930, 2933, 2935, 2937, 2933]
ch0 : [2556, 2558, 2595, 2596, 2408, 2530, 2568, 2583, 2573, 2541]
ch1 : [3177, 3174, 3171, 3176, 3175, 3175, 3176, 3177, 3181, 3179]
ch2 : [1504, 1506, 1499, 1493, 1507, 1508, 1508, 1521, 1509, 1509]
ch3 : [2931, 2927, 2930, 2935, 2935, 2928, 2934, 2934, 2941, 2931]
ch0 : [2514, 2598, 2514, 2447, 2547, 2577, 2592, 2559, 2560, 2597]
ch1 : [3180, 3183, 3177, 3168, 3164, 3174, 3176, 3171, 3180, 3176]
ch2 : [1514, 1493, 1492, 1507, 1506, 1507, 1508, 1504, 1511, 1499]
ch3 : [2937, 2928, 2931, 2932, 2931, 2929, 2932, 2929, 2930, 2934]
ch0 : [2598, 2401, 2538, 2556, 2577, 2568, 2547, 2509, 2599, 2526]
ch1 : [3176, 3167, 3172, 3172, 3175, 3178, 3178, 3180, 3174, 3174]
ch2 : [1493, 1497, 1510, 1509, 1497, 1506, 1506, 1502, 1492, 1488]
ch3 : [2935, 2935, 2933, 2932, 2934, 2928, 2935, 2930, 2931, 2933]
ch0 : [2442, 2540, 2581, 2601, 2552, 2534, 2603, 2598, 2382, 2522]
ch1 : [3170, 3168, 3170, 3177, 3179, 3181, 3176, 3175, 3175, 3166]
ch2 : [1507, 1512, 1508, 1504, 1504, 1505, 1502, 1492, 1499, 1510]
ch3 : [2936, 2944, 2941, 2933, 2932, 2932, 2932, 2937, 2932, 2935]
ch0 : [2567, 2563, 2589, 2545, 2520, 2601, 2564, 2428, 2543, 2575]
ch1 : [3186, 3176, 3182, 3178, 3177, 3181, 3172, 3167, 3172, 3177]
ch2 : [1509, 1508, 1505, 1503, 1504, 1493, 1492, 1508, 1510, 1507]
ch3 : [2934, 2936, 2938, 2933, 2932, 2931, 2931, 2937, 2926, 2936]
ch0 : [2596, 2555, 2556, 2600, 2596, 2365, 2537, 2567, 2573, 2570]
ch1 : [3176, 3177, 3181, 3179, 3178, 3168, 3174, 3171, 3185, 3180]
ch2 : [1508, 1503, 1498, 1503, 1483, 1499, 1507, 1507, 1506, 1508]
ch3 : [2934, 2935, 2931, 2933, 2932, 2934, 2935, 2937, 2932, 2934]
ch0 : [2559, 2525, 2605, 2550, 2420, 2545, 2578, 2595, 2564, 2557]
ch1 : [3183, 3179, 3179, 3176, 3167, 3166, 3172, 3177, 3178, 3180]
ch2 : [1503, 1495, 1497, 1492, 1504, 1513, 1507, 1507, 1503, 1503]
ch3 : [2935, 2940, 2931, 2933, 2935, 2934, 2935, 2934, 2932, 2932]
ch0 : [2600, 2602, 2367, 2533, 2566, 2567, 2588, 2543, 2537, 2601]
ch1 : [3179, 3178, 3178, 3170, 3176, 3181, 3180, 3181, 3183, 3180]
ch2 : [1499, 1494, 1492, 1508, 1506, 1519, 1503, 1503, 1505, 1502]
ch3 : [2933, 2931, 2935, 2933, 2934, 2935, 2932, 2930, 2929, 2932]
ch0 : [2546, 2417, 2548, 2582, 2596, 2554, 2543, 2596, 2605, 2362]
ch1 : [3178, 3176, 3170, 3176, 3185, 3178, 3182, 3176, 3181, 3177]
ch2 : [1487, 1500, 1509, 1506, 1506, 1499, 1503, 1506, 1491, 1493]
ch3 : [2932, 2936, 2936, 2934, 2932, 2933, 2932, 2934, 2931, 2936]
ch0 : [2532, 2556, 2582, 2586, 2574, 2523, 2607, 2595, 2403, 2537]
ch1 : [3169, 3174, 3180, 3174, 3174, 3178, 3177, 3180, 3172, 3173]
ch2 : [1508, 1506, 1503, 1510, 1504, 1507, 1494, 1489, 1502, 1509]
ch3 : [2935, 2934, 2935, 2937, 2931, 2935, 2932, 2930, 2934, 2931]
ch0 : [2579, 2606, 2605, 2562, 2552, 2563, 2389, 2517, 2589, 2600]
ch1 : [3176, 3176, 3188, 3180, 3182, 3182, 3181, 3174, 3176, 3180]
ch2 : [1510, 1509, 1505, 1491, 1504, 1491, 1492, 1508, 1508, 1509]
ch3 : [2937, 2936, 2931, 2933, 2933, 2935, 2936, 2934, 2934, 2934]
ch0 : [2606, 2556, 2549, 2616, 2579, 2316, 2480, 2519, 2594, 2625]
ch1 : [3184, 3179, 3181, 3169, 3180, 3177, 3175, 3175, 3180, 3179]
ch2 : [1498, 1506, 1503, 1509, 1473, 1502, 1509, 1506, 1506, 1504]
ch3 : [2932, 2935, 2931, 2936, 2933, 2933, 2934, 2937, 2934, 2931]
ch0 : [2610, 2587, 2615, 2583, 2608, 2616, 2589, 2422, 2445, 2607]
ch1 : [3182, 3182, 3178, 3179, 3170, 3171, 3180, 3178, 3181, 3179]
ch2 : [1503, 1498, 1490, 1476, 1508, 1506, 1509, 1506, 1502, 1502]
ch3 : [2933, 2933, 2934, 2930, 2933, 2933, 2931, 2932, 2931, 2932]
ch0 : [2630, 2632, 2424, 2577, 2477, 2507, 2506, 2613, 2619, 2630]
ch1 : [3184, 3177, 3170, 3167, 3177, 3181, 3184, 3179, 3183, 3178]
ch2 : [1497, 1484, 1500, 1508, 1505, 1502, 1504, 1501, 1488, 1508]
ch3 : [2929, 2931, 2931, 2933, 2933, 2931, 2926, 2926, 2929, 2930]
ch0 : [2576, 2620, 2627, 2507, 2424, 2610, 2626, 2643, 2640, 2256]
ch1 : [3177, 3173, 3179, 3179, 3185, 3180, 3169, 3183, 3191, 3175]
ch2 : [1489, 1504, 1502, 1503, 1503, 1517, 1502, 1501, 1483, 1496]
ch3 : [2929, 2933, 2932, 2932, 2928, 2932, 2927, 2920, 2930, 2928]
ch0 : [2548, 2602, 2595, 2613, 2615, 2510, 2195, 2454, 2608, 2613]
ch1 : [3181, 3184, 3178, 3179, 3182, 3181, 3160, 3184, 3173, 3174]
ch2 : [1505, 1498, 1513, 1503, 1504, 1483, 1500, 1507, 1503, 1501]
ch3 : [2914, 2929, 2926, 2929, 2927, 2923, 2919, 2928, 2927, 2930]
ch0 : [2559, 2343, 2395, 2598, 2612, 2559, 2447, 2307, 2470, 2585]
ch1 : [3177, 3182, 3185, 3183, 3176, 3174, 3177, 3180, 3179, 3184]
ch2 : [1497, 1496, 1500, 1486, 1483, 1503, 1503, 1502, 1500, 1499]
ch3 : [2926, 2928, 2926, 2927, 2930, 2932, 2929, 2930, 2930, 2929]
ch0 : [2588, 2599, 2525, 2431, 2551, 2412, 2310, 2576, 2584, 2582]
ch1 : [3182, 3185, 3180, 3174, 3170, 3183, 3182, 3181, 3182, 3181]
ch2 : [1500, 1500, 1485, 1498, 1510, 1503, 1504, 1503, 1503, 1500]
ch3 : [2928, 2933, 2928, 2931, 2932, 2936, 2932, 2926, 2928, 2930]
ch0 : [2592, 2508, 2430, 2490, 2541, 2561, 2574, 2480, 2583, 2512]
ch1 : [3169, 3166, 3169, 3178, 3175, 3180, 3177, 3183, 3187, 3180]
ch2 : [1496, 1492, 1497, 1507, 1504, 1510, 1504, 1502, 1506, 1487]
ch3 : [2927, 2930, 2933, 2933, 2932, 2930, 2933, 2933, 2928, 2932]
ch0 : [2259, 2530, 2578, 2583, 2587, 2410, 2450, 2578, 2589, 2489]
ch1 : [3174, 3167, 3172, 3170, 3180, 3178, 3184, 3178, 3173, 3170]
ch2 : [1495, 1508, 1510, 1504, 1499, 1492, 1501, 1478, 1492, 1505]
ch3 : [2931, 2932, 2931, 2935, 2927, 2931, 2927, 2932, 2937, 2934]
ch0 : [2549, 2487, 2562, 2580, 2495, 2264, 2565, 2260, 2497, 2545]
ch1 : [3171, 3177, 3181, 3185, 3185, 3182, 3183, 3177, 3156, 3173]
ch2 : [1503, 1503, 1502, 1487, 1503, 1496, 1485, 1491, 1501, 1506]
ch3 : [2937, 2933, 2932, 2931, 2931, 2931, 2928, 2928, 2935, 2931]
ch0 : [2528, 2530, 2415, 2267, 2563, 2576, 2361, 2464, 2445, 2505]
ch1 : [3180, 3182, 3186, 3183, 3185, 3180, 3180, 3176, 3183, 3189]
ch2 : [1501, 1499, 1499, 1501, 1494, 1483, 1499, 1508, 1501, 1501]
ch3 : [2934, 2930, 2932, 2933, 2930, 2928, 2933, 2933, 2929, 2931]
ch0 : [2450, 2401, 2433, 2554, 2346, 2488, 2533, 2544, 2560, 2376]
ch1 : [3184, 3182, 3188, 3185, 3181, 3171, 3178, 3181, 3181, 3183]
ch2 : [1482, 1498, 1499, 1485, 1492, 1504, 1515, 1501, 1500, 1498]
ch3 : [2933, 2927, 2932, 2926, 2930, 2933, 2936, 2933, 2939, 2932]
ch0 : [2442, 2560, 2556, 2459, 2513, 2467, 2516, 2449, 2401, 2386]
ch1 : [3184, 3185, 3184, 3179, 3178, 3180, 3182, 3187, 3187, 3187]
ch2 : [1498, 1492, 1490, 1500, 1499, 1507, 1500, 1502, 1499, 1500]
ch3 : [2930, 2929, 2934, 2931, 2927, 2931, 2933, 2932, 2929, 2933]
ch0 : [2552, 2250, 2459, 2495, 2484, 2479, 2428, 2456, 2551, 2550]
ch1 : [3172, 3183, 3173, 3175, 3180, 3183, 3185, 3189, 3190, 3180]
ch2 : [1487, 1487, 1507, 1506, 1500, 1500, 1499, 1499, 1492, 1482]
ch3 : [2929, 2925, 2928, 2934, 2934, 2927, 2927, 2928, 2929, 2940]
ch0 : [2384, 2427, 2538, 2439, 2410, 2535, 2536, 2340, 2364, 2426]
ch1 : [3179, 3181, 3181, 3185, 3184, 3189, 3178, 3180, 3181, 3180]
ch2 : [1505, 1502, 1500, 1501, 1498, 1495, 1484, 1497, 1503, 1501]
ch3 : [2933, 2933, 2927, 2916, 2927, 2928, 2937, 2933, 2933, 2930]
ch0 : [2530, 2524, 2297, 2333, 2517, 2355, 2360, 2459, 2470, 2524]
ch1 : [3185, 3186, 3184, 3189, 3188, 3181, 3179, 3179, 3183, 3183]
ch2 : [1505, 1500, 1497, 1500, 1486, 1491, 1502, 1502, 1502, 1498]
ch3 : [2932, 2928, 2929, 2927, 2932, 2929, 2935, 2934, 2934, 2930]
ch0 : [2408, 2413, 2528, 2504, 2307, 2433, 2449, 2471, 2455, 2416]
ch1 : [3182, 3194, 3185, 3179, 3178, 3177, 3181, 3192, 3188, 3184]
ch2 : [1498, 1499, 1495, 1485, 1495, 1503, 1501, 1503, 1499, 1503]
ch3 : [2928, 2927, 2929, 2931, 2932, 2933, 2931, 2933, 2933, 2931]
ch0 : [2396, 2516, 2381, 2304, 2403, 2439, 2495, 2425, 2433, 2520]
ch1 : [3200, 3183, 3184, 3180, 3165, 3182, 3183, 3185, 3183, 3182]
ch2 : [1502, 1487, 1486, 1504, 1508, 1486, 1500, 1499, 1500, 1486]
ch3 : [2931, 2930, 2927, 2921, 2935, 2934, 2931, 2927, 2932, 2932]
ch0 : [2523, 2341, 2386, 2330, 2366, 2475, 2465, 2422, 2516, 2467]
ch1 : [3179, 3180, 3177, 3181, 3187, 3182, 3189, 3179, 3185, 3180]
ch2 : [1484, 1491, 1503, 1502, 1503, 1505, 1499, 1508, 1484, 1483]
ch3 : [2933, 2932, 2934, 2943, 2931, 2933, 2932, 2936, 2927, 2932]
ch0 : [2292, 2411, 2452, 2507, 2462, 2455, 2517, 2518, 2262, 2434]
ch1 : [3174, 3175, 3180, 3183, 3187, 3188, 3185, 3181, 3175, 3177]
ch2 : [1503, 1505, 1502, 1501, 1499, 1501, 1497, 1483, 1499, 1509]
ch3 : [2932, 2930, 2935, 2932, 2929, 2930, 2930, 2928, 2933, 2933]
ch0 : [2471, 2467, 2478, 2444, 2409, 2518, 2444, 2336, 2459, 2476]
ch1 : [3185, 3194, 3185, 3189, 3183, 3184, 3183, 3177, 3180, 3182]
ch2 : [1505, 1504, 1501, 1498, 1504, 1492, 1484, 1504, 1509, 1507]
ch3 : [2934, 2933, 2930, 2933, 2931, 2932, 2941, 2936, 2943, 2934]
ch0 : [2513, 2482, 2457, 2527, 2502, 2290, 2449, 2489, 2474, 2498]
ch1 : [3173, 3183, 3188, 3183, 3178, 3175, 3180, 3178, 3183, 3183]
ch2 : [1498, 1517, 1499, 1497, 1490, 1498, 1509, 1505, 1503, 1501]
ch3 : [2931, 2929, 2932, 2928, 2934, 2932, 2931, 2934, 2923, 2934]
ch0 : [2455, 2429, 2537, 2493, 2342, 2459, 2488, 2532, 2478, 2469]
ch1 : [3186, 3188, 3184, 3175, 3178, 3178, 3183, 3187, 3184, 3185]
ch2 : [1505, 1504, 1492, 1486, 1499, 1511, 1503, 1505, 1505, 1498]
ch3 : [2927, 2931, 2931, 2938, 2930, 2934, 2933, 2933, 2927, 2927]
ch0 : [2517, 2538, 2285, 2446, 2475, 2469, 2519, 2485, 2426, 2543]
ch1 : [3186, 3182, 3179, 3178, 3182, 3185, 3188, 3188, 3188, 3186]
ch2 : [1498, 1491, 1499, 1506, 1506, 1505, 1504, 1502, 1506, 1490]
ch3 : [2929, 2930, 2931, 2933, 2929, 2921, 2928, 2929, 2932, 2931]
ch0 : [2461, 2516, 2506, 2530, 2499, 2467, 2548, 2483, 2319, 2473]
ch1 : [3171, 3180, 3181, 3188, 3186, 3185, 3184, 3179, 3181, 3173]
ch2 : [1506, 1509, 1505, 1498, 1505, 1504, 1497, 1486, 1504, 1507]
ch3 : [2937, 2929, 2929, 2939, 2927, 2925, 2929, 2916, 2926, 2937]
ch0 : [2516, 2542, 2512, 2473, 2499, 2543, 2363, 2449, 2477, 2494]
ch1 : [3175, 3184, 3183, 3183, 3185, 3178, 3179, 3175, 3181, 3183]
ch2 : [1507, 1506, 1503, 1502, 1502, 1494, 1490, 1518, 1508, 1507]
ch3 : [2931, 2933, 2927, 2929, 2927, 2941, 2928, 2928, 2927, 2932]
ch0 : [2513, 2471, 2464, 2549, 2491, 2293, 2480, 2493, 2539, 2503]
ch1 : [3185, 3185, 3186, 3184, 3181, 3173, 3177, 3178, 3184, 3186]
ch2 : [1507, 1507, 1506, 1500, 1493, 1505, 1513, 1511, 1512, 1514]
ch3 : [2927, 2928, 2927, 2926, 2925, 2927, 2929, 2929, 2929, 2927]
ch0 : [2431, 2478, 2545, 2418, 2430, 2504, 2484, 2512, 2478, 2469]
ch1 : [3186, 3183, 3188, 3178, 3174, 3178, 3185, 3188, 3188, 3190]
ch2 : [1509, 1511, 1501, 1501, 1513, 1511, 1513, 1514, 1511, 1511]
ch3 : [2928, 2928, 2926, 2927, 2927, 2935, 2926, 2930, 2929, 2927]
ch0 : [2553, 2541, 2277, 2457, 2474, 2540, 2509, 2466, 2459, 2548]
ch1 : [3186, 3184, 3167, 3177, 3181, 3183, 3183, 3184, 3182, 3183]
ch2 : [1504, 1494, 1505, 1516, 1515, 1515, 1509, 1506, 1517, 1500]
ch3 : [2925, 2925, 2923, 2931, 2927, 2928, 2923, 2926, 2933, 2927]
ch0 : [2459, 2520, 2542, 2543, 2489, 2491, 2554, 2528, 2429, 2527]
ch1 : [3174, 3177, 3184, 3179, 3183, 3178, 3175, 3179, 3174, 3178]
ch2 : [1532, 1516, 1512, 1506, 1510, 1512, 1498, 1510, 1511, 1513]
ch3 : [2929, 2931, 2929, 2923, 2926, 2925, 2929, 2924, 2931, 2926]
ch0 : [2515, 2512, 2513, 2501, 2569, 2538, 2281, 2481, 2523, 2528]
ch1 : [3179, 3185, 3192, 3185, 3186, 3179, 3172, 3172, 3175, 3183]
ch2 : [1511, 1511, 1509, 1503, 1505, 1498, 1503, 1512, 1516, 1515]
ch3 : [2928, 2927, 2929, 2927, 2930, 2926, 2937, 2926, 2934, 2931]
ch0 : [2554, 2512, 2477, 2565, 2536, 2433, 2539, 2530, 2536, 2528]
ch1 : [3181, 3183, 3184, 3179, 3183, 3177, 3178, 3183, 3180, 3186]
ch2 : [1513, 1511, 1503, 1497, 1493, 1512, 1510, 1510, 1513, 1507]
ch3 : [2924, 2926, 2926, 2924, 2929, 2931, 2926, 2929, 2929, 2919]
ch0 : [2505, 2568, 2557, 2276, 2469, 2535, 2546, 2565, 2516, 2512]
ch1 : [3184, 3185, 3182, 3175, 3173, 3188, 3179, 3182, 3184, 3186]
ch2 : [1503, 1506, 1493, 1479, 1525, 1506, 1502, 1505, 1505, 1503]
ch3 : [2928, 2931, 2914, 2928, 2931, 2928, 2927, 2925, 2927, 2925]
ch0 : [2575, 2564, 2441, 2532, 2533, 2567, 2546, 2522, 2578, 2566]
ch1 : [3180, 3176, 3176, 3179, 3177, 3183, 3182, 3192, 3183, 3179]
ch2 : [1493, 1485, 1504, 1508, 1505, 1501, 1495, 1502, 1493, 1480]
ch3 : [2927, 2927, 2932, 2931, 2930, 2928, 2929, 2929, 2928, 2934]
ch0 : [2252, 2489, 2545, 2555, 2568, 2528, 2526, 2584, 2566, 2435]
ch1 : [3177, 3173, 3171, 3191, 3175, 3193, 3180, 3183, 3180, 3188]
ch2 : [1493, 1509, 1504, 1507, 1498, 1494, 1495, 1478, 1485, 1503]
ch3 : [2928, 2932, 2932, 2932, 2931, 2926, 2926, 2931, 2931, 2935]
ch0 : [2539, 2536, 2569, 2549, 2527, 2556, 2586, 2272, 2464, 2516]
ch1 : [3176, 3184, 3183, 3185, 3182, 3184, 3183, 3176, 3176, 3177]
ch2 : [1516, 1501, 1499, 1500, 1500, 1498, 1483, 1492, 1503, 1502]
ch3 : [2931, 2930, 2928, 2929, 2930, 2933, 2928, 2932, 2936, 2936]
ch0 : [2543, 2574, 2524, 2529, 2582, 2585, 2416, 2525, 2539, 2560]
ch1 : [3180, 3182, 3186, 3182, 3185, 3184, 3177, 3177, 3181, 3186]
ch2 : [1500, 1496, 1498, 1497, 1486, 1480, 1493, 1501, 1503, 1494]
ch3 : [2932, 2930, 2931, 2928, 2928, 2927, 2934, 2935, 2932, 2931]
ch0 : [2541, 2507, 2503, 2580, 2254, 2460, 2527, 2552, 2574, 2509]
ch1 : [3186, 3182, 3196, 3177, 3182, 3181, 3180, 3182, 3176, 3175]
ch2 : [1500, 1499, 1499, 1482, 1489, 1503, 1505, 1504, 1499, 1500]
ch3 : [2931, 2933, 2932, 2931, 2923, 2941, 2941, 2934, 2932, 2930]
ch0 : [2513, 2582, 2562, 2403, 2511, 2535, 2568, 2546, 2485, 2486]
ch1 : [3183, 3185, 3182, 3176, 3175, 3184, 3184, 3185, 3190, 3203]
ch2 : [1496, 1492, 1482, 1496, 1500, 1500, 1499, 1493, 1498, 1498]
ch3 : [2928, 2936, 2935, 2929, 2932, 2932, 2932, 2925, 2932, 2933]
ch0 : [2573, 2259, 2438, 2538, 2535, 2571, 2521, 2527, 2580, 2570]
ch1 : [3182, 3181, 3176, 3180, 3180, 3182, 3185, 3183, 3187, 3181]
ch2 : [1484, 1480, 1497, 1499, 1503, 1496, 1493, 1501, 1483, 1486]
ch3 : [2931, 2932, 2934, 2934, 2930, 2931, 2923, 2927, 2930, 2933]
ch0 : [2398, 2529, 2531, 2561, 2537, 2513, 2481, 2580, 2329, 2442]
ch1 : [3174, 3177, 3185, 3181, 3186, 3187, 3187, 3187, 3179, 3175]
ch2 : [1498, 1485, 1498, 1494, 1495, 1495, 1496, 1481, 1487, 1499]
ch3 : [2932, 2933, 2924, 2935, 2931, 2933, 2927, 2931, 2931, 2934]
ch0 : [2516, 2545, 2567, 2518, 2522, 2584, 2564, 2396, 2511, 2540]
ch1 : [3179, 3186, 3188, 3184, 3187, 3191, 3183, 3179, 3182, 3185]
